5330
0.000	5.7626766E-02
0.005	5.7227951E-02
0.010	5.7108225E-02
0.015	5.7328703E-02
0.020	5.7916396E-02
0.025	5.8867725E-02
0.030	6.0151876E-02
0.035	6.1716060E-02
0.040	6.3481996E-02
0.045	6.5367888E-02
0.050	6.7304468E-02
0.055	6.9243223E-02
0.060	7.1157973E-02
0.065	7.3068010E-02
0.070	7.5042035E-02
0.075	7.7157920E-02
0.080	7.9422545E-02
0.085	8.1770919E-02
0.090	8.4064156E-02
0.095	8.6095462E-02
0.100	8.7595502E-02
0.105	8.8253940E-02
0.110	8.7742707E-02
0.115	8.5740135E-02
0.120	8.1963467E-02
0.125	7.6238447E-02
0.130	6.8519836E-02
0.135	5.8820419E-02
0.140	4.7141730E-02
0.145	3.3556707E-02
0.150	1.8265237E-02
0.155	1.6074108E-03
0.160	-1.5985030E-02
0.165	-3.3992089E-02
0.170	-5.1873462E-02
0.175	-6.9190655E-02
0.180	-8.5777737E-02
0.185	-1.0172458E-01
0.190	-1.1721848E-01
0.195	-1.3250172E-01
0.200	-1.4796172E-01
0.205	-1.6410453E-01
0.210	-1.8141727E-01
0.215	-2.0030837E-01
0.220	-2.2108086E-01
0.225	-2.4387570E-01
0.230	-2.6864890E-01
0.235	-2.9508470E-01
0.240	-3.2246916E-01
0.245	-3.4951028E-01
0.250	-3.7412708E-01
0.255	-3.9358786E-01
0.260	-4.0480274E-01
0.265	-4.0477844E-01
0.270	-3.9123875E-01
0.275	-3.6326227E-01
0.280	-3.2179364E-01
0.285	-2.6991726E-01
0.290	-2.1210401E-01
0.295	-1.5211061E-01
0.300	-9.2993217E-02
0.305	-3.6752488E-02
0.310	1.5788131E-02
0.315	6.4402849E-02
0.320	1.0840100E-01
0.325	1.4665371E-01
0.330	1.7807418E-01
0.335	2.0190028E-01
0.340	2.1787536E-01
0.345	2.2640517E-01
0.350	2.2857285E-01
0.355	2.2544436E-01
0.360	2.1792741E-01
0.365	2.0712230E-01
0.370	1.9410197E-01
0.375	1.7939590E-01
0.380	1.6329618E-01
0.385	1.4613032E-01
0.390	1.2837770E-01
0.395	1.1077696E-01
0.400	9.4361652E-02
0.405	8.0390588E-02
0.410	7.0165898E-02
0.415	6.4770310E-02
0.420	6.4752971E-02
0.425	6.9838248E-02
0.430	7.8675587E-02
0.435	8.8877158E-02
0.440	9.7535783E-02
0.445	1.0155070E-01
0.450	9.7882654E-02
0.455	8.4295020E-02
0.460	5.9701946E-02
0.465	2.4330068E-02
0.470	-2.0763123E-02
0.475	-7.5146539E-02
0.480	-1.3877700E-01
0.485	-2.1123162E-01
0.490	-2.9145746E-01
0.495	-3.7802196E-01
0.500	-4.6926982E-01
0.505	-5.6278454E-01
0.510	-6.5511677E-01
0.515	-7.4220572E-01
0.520	-8.2054754E-01
0.525	-8.8720348E-01
0.530	-9.3987278E-01
0.535	-9.7705236E-01
0.540	-9.9758381E-01
0.545	-1.0000000E+00
0.550	-9.8340769E-01
0.555	-9.4786352E-01
0.560	-8.9332400E-01
0.565	-8.1913058E-01
0.570	-7.2538722E-01
0.575	-6.1362614E-01
0.580	-4.8627879E-01
0.585	-3.4769900E-01
0.590	-2.0418092E-01
0.595	-6.2173765E-02
0.600	7.2484463E-02
0.605	1.9446575E-01
0.610	2.9973531E-01
0.615	3.8601147E-01
0.620	4.5298259E-01
0.625	5.0171169E-01
0.630	5.3363806E-01
0.635	5.5092822E-01
0.640	5.5560896E-01
0.645	5.4877984E-01
0.650	5.3168097E-01
0.655	5.0616206E-01
0.660	4.7425203E-01
0.665	4.3819286E-01
0.670	4.0085096E-01
0.675	3.6528488E-01
0.680	3.3330047E-01
0.685	3.0524772E-01
0.690	2.8020211E-01
0.695	2.5601404E-01
0.700	2.2962454E-01
0.705	1.9796869E-01
0.710	1.5881987E-01
0.715	1.1095249E-01
0.720	5.4349887E-02
0.725	-9.7113627E-03
0.730	-7.9195942E-02
0.735	-1.5169609E-01
0.740	-2.2410828E-01
0.745	-2.9263116E-01
0.750	-3.5327093E-01
0.755	-4.0231553E-01
0.760	-4.3680037E-01
0.765	-4.5538121E-01
0.770	-4.5946419E-01
0.775	-4.5297373E-01
0.780	-4.4041792E-01
0.785	-4.2434932E-01
0.790	-4.0614433E-01
0.795	-3.8670513E-01
0.800	-3.6660134E-01
0.805	-3.4616226E-01
0.810	-3.2545865E-01
0.815	-3.0451227E-01
0.820	-2.8343815E-01
0.825	-2.6252830E-01
0.830	-2.4220055E-01
0.835	-2.2281899E-01
0.840	-2.0456440E-01
0.845	-1.8741094E-01
0.850	-1.7107117E-01
0.855	-1.5499641E-01
0.860	-1.3854252E-01
0.865	-1.2137559E-01
0.870	-1.0344490E-01
0.875	-8.4973818E-02
0.880	-6.6489983E-02
0.885	-4.8839137E-02
0.890	-3.3124322E-02
0.895	-2.0594203E-02
0.900	-1.2421993E-02
0.905	-9.4783068E-03
0.910	-1.2079811E-02
0.915	-1.9801853E-02
0.920	-3.1546517E-02
0.925	-4.5767655E-02
0.930	-6.0212744E-02
0.935	-7.1840548E-02
0.940	-7.7135466E-02
0.945	-7.2847769E-02
0.950	-5.6433269E-02
0.955	-2.6452792E-02
0.960	1.7033630E-02
0.965	7.2472131E-02
0.970	1.3718730E-01
0.975	2.0736342E-01
0.980	2.7922587E-01
0.985	3.5006593E-01
0.990	4.1775131E-01
0.995	4.8036196E-01
1.000	5.3603742E-01
1.005	5.8300778E-01
1.010	6.1986981E-01
1.015	6.4564971E-01
1.020	6.5963832E-01
1.025	6.6200049E-01
1.030	6.5430653E-01
1.035	6.3972295E-01
1.040	6.2199003E-01
1.045	6.0291667E-01
1.050	5.8301410E-01
1.055	5.6218800E-01
1.060	5.4004552E-01
1.065	5.1641046E-01
1.070	4.9158152E-01
1.075	4.6637163E-01
1.080	4.4197502E-01
1.085	4.1942754E-01
1.090	3.9886801E-01
1.095	3.7969088E-01
1.100	3.6096439E-01
1.105	3.4225826E-01
1.110	3.2390409E-01
1.115	3.0667091E-01
1.120	2.9133497E-01
1.125	2.7824634E-01
1.130	2.6720445E-01
1.135	2.5739117E-01
1.140	2.4728751E-01
1.145	2.3473466E-01
1.150	2.1714065E-01
1.155	1.9178759E-01
1.160	1.5625910E-01
1.165	1.0916469E-01
1.170	5.1051424E-02
1.175	-1.5218196E-02
1.180	-8.4469974E-02
1.185	-1.5017742E-01
1.190	-2.0740603E-01
1.195	-2.5505651E-01
1.200	-2.9434170E-01
1.205	-3.2623055E-01
1.210	-3.5191037E-01
1.215	-3.7283155E-01
1.220	-3.8982787E-01
1.225	-4.0315976E-01
1.230	-4.1282936E-01
1.235	-4.1874701E-01
1.240	-4.2084531E-01
1.245	-4.1885251E-01
1.250	-4.1165739E-01
1.255	-3.9776730E-01
1.260	-3.7580494E-01
1.265	-3.4477855E-01
1.270	-3.0395079E-01
1.275	-2.5257160E-01
1.280	-1.9062801E-01
1.285	-1.1952745E-01
1.290	-4.2304607E-02
1.295	3.6786526E-02
1.300	1.1277592E-01
1.305	1.7997067E-01
1.310	2.3269227E-01
1.315	2.6685027E-01
1.320	2.8069282E-01
1.325	2.7489980E-01
1.330	2.5185414E-01
1.335	2.1510664E-01
1.340	1.7011881E-01
1.345	1.2365525E-01
1.350	8.1320103E-02
1.355	4.7304131E-02
1.360	2.4702340E-02
1.365	1.5387099E-02
1.370	1.9917794E-02
1.375	3.7211063E-02
1.380	6.4235760E-02
1.385	9.6211025E-02
1.390	1.2827097E-01
1.395	1.5772548E-01
1.400	1.8360497E-01
1.405	2.0619441E-01
1.410	2.2684671E-01
1.415	2.4732117E-01
1.420	2.6897673E-01
1.425	2.9268748E-01
1.430	3.1877706E-01
1.435	3.4687069E-01
1.440	3.7594542E-01
1.445	4.0468903E-01
1.450	4.3182473E-01
1.455	4.5601576E-01
1.460	4.7573902E-01
1.465	4.8899349E-01
1.470	4.9319600E-01
1.475	4.8564030E-01
1.480	4.6386579E-01
1.485	4.2581414E-01
1.490	3.7033342E-01
1.495	2.9797526E-01
1.500	2.1105848E-01
1.505	1.1272337E-01
1.510	7.2331602E-03
1.515	-9.9799513E-02
1.520	-2.0295903E-01
1.525	-2.9918754E-01
1.530	-3.8688115E-01
1.535	-4.6436544E-01
1.540	-5.2968932E-01
1.545	-5.8115209E-01
1.550	-6.1769442E-01
1.555	-6.3908487E-01
1.560	-6.4622391E-01
1.565	-6.4047301E-01
1.570	-6.2251004E-01
1.575	-5.9307433E-01
1.580	-5.5298309E-01
1.585	-5.0256980E-01
1.590	-4.4257393E-01
1.595	-3.7484701E-01
1.600	-3.0225297E-01
1.605	-2.2765900E-01
1.610	-1.5355778E-01
1.615	-8.2397782E-02
1.620	-1.6267469E-02
1.625	4.3939808E-02
1.630	9.8473770E-02
1.635	1.4827008E-01
1.640	1.9403670E-01
1.645	2.3591911E-01
1.650	2.7382356E-01
1.655	3.0732434E-01
1.660	3.3519705E-01
1.665	3.5570091E-01
1.670	3.6719853E-01
1.675	3.6872411E-01
1.680	3.6057056E-01
1.685	3.4470319E-01
1.690	3.2464792E-01
1.695	3.0426376E-01
1.700	2.8671630E-01
1.705	2.7478568E-01
1.710	2.7098094E-01
1.715	2.7752247E-01
1.720	2.9628992E-01
1.725	3.2820578E-01
1.730	3.7264543E-01
1.735	4.2730786E-01
1.740	4.8870253E-01
1.745	5.5223746E-01
1.750	6.1331359E-01
1.755	6.6783234E-01
1.760	7.1199843E-01
1.765	7.4242213E-01
1.770	7.5637921E-01
1.775	7.5231003E-01
1.780	7.3008742E-01
1.785	6.9064115E-01
1.790	6.3637000E-01
1.795	5.7062701E-01
1.800	4.9554996E-01
1.805	4.1313223E-01
1.810	3.2618318E-01
1.815	2.3834524E-01
1.820	1.5346698E-01
1.825	7.5560871E-02
1.830	8.7505767E-03
1.835	-4.3363436E-02
1.840	-7.8934110E-02
1.845	-9.8858653E-02
1.850	-1.0601387E-01
1.855	-1.0302635E-01
1.860	-9.2518435E-02
1.865	-7.7902111E-02
1.870	-6.3068872E-02
1.875	-5.1049577E-02
1.880	-4.3931270E-02
1.885	-4.3121235E-02
1.890	-4.9339616E-02
1.895	-6.2690787E-02
1.900	-8.3000967E-02
1.905	-1.0978060E-01
1.910	-1.4190261E-01
1.915	-1.7754102E-01
1.920	-2.1481617E-01
1.925	-2.5270419E-01
1.930	-2.9062300E-01
1.935	-3.2802303E-01
1.940	-3.6413466E-01
1.945	-3.9761493E-01
1.950	-4.2655361E-01
1.955	-4.4864404E-01
1.960	-4.6146889E-01
1.965	-4.6287764E-01
1.970	-4.5149438E-01
1.975	-4.2723816E-01
1.980	-3.9170721E-01
1.985	-3.4764415E-01
1.990	-2.9709901E-01
1.995	-2.4161058E-01
2.000	-1.8290015E-01
2.005	-1.2303409E-01
2.010	-6.3993197E-02
2.015	-6.9985559E-03
2.020	4.7252712E-02
2.025	9.8381408E-02
2.030	1.4625503E-01
2.035	1.9075970E-01
2.040	2.3126826E-01
2.045	2.6629445E-01
2.050	2.9383014E-01
2.055	3.1167102E-01
2.060	3.1762890E-01
2.065	3.0989455E-01
2.070	2.8765568E-01
2.075	2.5130727E-01
2.080	2.0165110E-01
2.085	1.3945588E-01
2.090	6.6508053E-02
2.095	-1.3653026E-02
2.100	-9.5718018E-02
2.105	-1.7382085E-01
2.110	-2.4340757E-01
2.115	-3.0102099E-01
2.120	-3.4409475E-01
2.125	-3.7069663E-01
2.130	-3.7956896E-01
2.135	-3.7103890E-01
2.140	-3.4764169E-01
2.145	-3.1407227E-01
2.150	-2.7624360E-01
2.155	-2.3920859E-01
2.160	-2.0636830E-01
2.165	-1.7992675E-01
2.170	-1.6089658E-01
2.175	-1.4888484E-01
2.180	-1.4210950E-01
2.185	-1.3780198E-01
2.190	-1.3340539E-01
2.195	-1.2754192E-01
2.200	-1.1978319E-01
2.205	-1.1046818E-01
2.210	-1.0056164E-01
2.215	-9.1238258E-02
2.220	-8.3344800E-02
2.225	-7.7314968E-02
2.230	-7.3102196E-02
2.235	-7.0109160E-02
2.240	-6.7349113E-02
2.245	-6.3913208E-02
2.250	-5.9059427E-02
2.255	-5.2218173E-02
2.260	-4.3065506E-02
2.265	-3.1590752E-02
2.270	-1.8000655E-02
2.275	-2.3986752E-03
2.280	1.5175865E-02
2.285	3.4598082E-02
2.290	5.5607134E-02
2.295	7.7844239E-02
2.300	1.0110063E-01
2.305	1.2547326E-01
2.310	1.5120391E-01
2.315	1.7850955E-01
2.320	2.0744938E-01
2.325	2.3778228E-01
2.330	2.6887887E-01
2.335	2.9973901E-01
2.340	3.2910280E-01
2.345	3.5541610E-01
2.350	3.7687593E-01
2.355	3.9156912E-01
2.360	3.9759629E-01
2.365	3.9305684E-01
2.370	3.7621864E-01
2.375	3.4617359E-01
2.380	3.0338989E-01
2.385	2.4990805E-01
2.390	1.8846682E-01
2.395	1.2115754E-01
2.400	5.0088347E-02
2.405	-2.2300740E-02
2.410	-9.3812242E-02
2.415	-1.6261106E-01
2.420	-2.2702798E-01
2.425	-2.8542060E-01
2.430	-3.3610737E-01
2.435	-3.7757641E-01
2.440	-4.0884302E-01
2.445	-4.2957036E-01
2.450	-4.3982385E-01
2.455	-4.4024182E-01
2.460	-4.3255262E-01
2.465	-4.1938887E-01
2.470	-4.0304491E-01
2.475	-3.8511618E-01
2.480	-3.6700379E-01
2.485	-3.5012972E-01
2.490	-3.3589859E-01
2.495	-3.2540898E-01
2.500	-3.1903633E-01
2.505	-3.1634798E-01
2.510	-3.1605333E-01
2.515	-3.1611416E-01
2.520	-3.1429443E-01
2.525	-3.0865559E-01
2.530	-2.9753192E-01
2.535	-2.7961215E-01
2.540	-2.5408232E-01
2.545	-2.2057989E-01
2.550	-1.7906807E-01
2.555	-1.3023980E-01
2.560	-7.5777786E-02
2.565	-1.8132688E-02
2.570	4.0647839E-02
2.575	9.9768644E-02
2.580	1.5921723E-01
2.585	2.1921063E-01
2.590	2.7962512E-01
2.595	3.3980644E-01
2.600	3.9860201E-01
2.605	4.5443584E-01
2.610	5.0569771E-01
2.615	5.5125341E-01
2.620	5.9053918E-01
2.625	6.2360263E-01
2.630	6.5071115E-01
2.635	6.7131254E-01
2.640	6.8452999E-01
2.645	6.8967927E-01
2.650	6.8638174E-01
2.655	6.7433569E-01
2.660	6.5344358E-01
2.665	6.2421131E-01
2.670	5.8755183E-01
2.675	5.4433218E-01
2.680	4.9586621E-01
2.685	4.4425147E-01
2.690	3.9207748E-01
2.695	3.4131814E-01
2.700	2.9241425E-01
2.705	2.4462946E-01
2.710	1.9644099E-01
2.715	1.4625708E-01
2.720	9.3315293E-02
2.725	3.7715261E-02
2.730	-1.9648910E-02
2.735	-7.7305683E-02
2.740	-1.3388477E-01
2.745	-1.8801273E-01
2.750	-2.3828432E-01
2.755	-2.8325925E-01
2.760	-3.2139628E-01
2.765	-3.5136088E-01
2.770	-3.7238148E-01
2.775	-3.8424395E-01
2.780	-3.8693994E-01
2.785	-3.8117064E-01
2.790	-3.6875859E-01
2.795	-3.5245445E-01
2.800	-3.3483770E-01
2.805	-3.1741758E-01
2.810	-3.0101557E-01
2.815	-2.8600023E-01
2.820	-2.7233944E-01
2.825	-2.5966361E-01
2.830	-2.4737750E-01
2.835	-2.3489311E-01
2.840	-2.2183067E-01
2.845	-2.0805643E-01
2.850	-1.9372284E-01
2.855	-1.7931289E-01
2.860	-1.6568183E-01
2.865	-1.5408897E-01
2.870	-1.4605873E-01
2.875	-1.4316604E-01
2.880	-1.4677349E-01
2.885	-1.5775052E-01
2.890	-1.7629541E-01
2.895	-2.0183583E-01
2.900	-2.3271107E-01
2.905	-2.6625964E-01
2.910	-2.9962407E-01
2.915	-3.3006632E-01
2.920	-3.5482819E-01
2.925	-3.7122765E-01
2.930	-3.7688948E-01
2.935	-3.7001209E-01
2.940	-3.4990304E-01
2.945	-3.1747710E-01
2.950	-2.7551497E-01
2.955	-2.2803551E-01
2.960	-1.7815611E-01
2.965	-1.2736336E-01
2.970	-7.6123409E-02
2.975	-2.4260464E-02
2.980	2.8793613E-02
2.985	8.3641918E-02
2.990	1.4073991E-01
2.995	2.0019909E-01
3.000	2.6165518E-01
3.005	3.2431738E-01
3.010	3.8748828E-01
3.015	4.5090055E-01
3.020	5.1442587E-01
3.025	5.7755678E-01
3.030	6.3858767E-01
3.035	6.9438004E-01
3.040	7.4083088E-01
3.045	7.7354089E-01
3.050	7.8898939E-01
3.055	7.8593110E-01
3.060	7.6584069E-01
3.065	7.3276912E-01
3.070	6.9142274E-01
3.075	6.4441929E-01
3.080	5.9324830E-01
3.085	5.3909874E-01
3.090	4.8303455E-01
3.095	4.2594066E-01
3.100	3.6805689E-01
3.105	3.0927815E-01
3.110	2.4939690E-01
3.115	1.8814565E-01
3.120	1.2504134E-01
3.125	5.9556490E-02
3.130	-8.6597090E-03
3.135	-7.9513987E-02
3.140	-1.5214625E-01
3.145	-2.2460054E-01
3.150	-2.9392554E-01
3.155	-3.5645778E-01
3.160	-4.0850847E-01
3.165	-4.4774801E-01
3.170	-4.7430852E-01
3.175	-4.9045831E-01
3.180	-4.9892556E-01
3.185	-5.0074275E-01
3.190	-4.9604313E-01
3.195	-4.8473786E-01
3.200	-4.6662655E-01
3.205	-4.4173192E-01
3.210	-4.1070701E-01
3.215	-3.7505045E-01
3.220	-3.3670645E-01
3.225	-2.9737897E-01
3.230	-2.5878325E-01
3.235	-2.2261571E-01
3.240	-1.9000570E-01
3.245	-1.6137932E-01
3.250	-1.3641532E-01
3.255	-1.1402728E-01
3.260	-9.2581077E-02
3.265	-7.0674924E-02
3.270	-4.7753765E-02
3.275	-2.3945169E-02
3.280	1.2428192E-04
3.285	2.3581230E-02
3.290	4.5686746E-02
3.295	6.5859500E-02
3.300	8.3732638E-02
3.305	9.9230235E-02
3.310	1.1250573E-01
3.315	1.2365402E-01
3.320	1.3278587E-01
3.325	1.4018533E-01
3.330	1.4639378E-01
3.335	1.5216767E-01
3.340	1.5827571E-01
3.345	1.6540400E-01
3.350	1.7418093E-01
3.355	1.8513112E-01
3.360	1.9860143E-01
3.365	2.1466626E-01
3.370	2.3315712E-01
3.375	2.5381492E-01
3.380	2.7611191E-01
3.385	2.9908886E-01
3.390	3.2133947E-01
3.395	3.4115082E-01
3.400	3.5669571E-01
3.405	3.6614421E-01
3.410	3.6787643E-01
3.415	3.6075840E-01
3.420	3.4435689E-01
3.425	3.1906769E-01
3.430	2.8625030E-01
3.435	2.4760754E-01
3.440	2.0419726E-01
3.445	1.5701475E-01
3.450	1.0744659E-01
3.455	5.7411977E-02
3.460	9.1327171E-03
3.465	-3.5585033E-02
3.470	-7.5494321E-02
3.475	-1.0988273E-01
3.480	-1.3867257E-01
3.485	-1.6230368E-01
3.490	-1.8124264E-01
3.495	-1.9591284E-01
3.500	-2.0706803E-01
3.505	-2.1598478E-01
3.510	-2.2448873E-01
3.515	-2.3444091E-01
3.520	-2.4662620E-01
3.525	-2.6088804E-01
3.530	-2.7637833E-01
3.535	-2.9187379E-01
3.540	-3.0625451E-01
3.545	-3.1843134E-01
3.550	-3.2733585E-01
3.555	-3.3198942E-01
3.560	-3.3157654E-01
3.565	-3.2531941E-01
3.570	-3.1210032E-01
3.575	-2.9080830E-01
3.580	-2.6066341E-01
3.585	-2.2117314E-01
3.590	-1.7200054E-01
3.595	-1.1359125E-01
3.600	-4.7678070E-02
3.605	2.2617677E-02
3.610	9.3614464E-02
3.615	1.6233324E-01
3.620	2.2624598E-01
3.625	2.8329497E-01
3.630	3.3244836E-01
3.635	3.7379269E-01
3.640	4.0818048E-01
3.645	4.3604669E-01
3.650	4.5663725E-01
3.655	4.6866828E-01
3.660	4.7102232E-01
3.665	4.6330685E-01
3.670	4.4625142E-01
3.675	4.2139636E-01
3.680	3.8985291E-01
3.685	3.5258343E-01
3.690	3.1108302E-01
3.695	2.6764967E-01
3.700	2.2526424E-01
3.705	1.8681014E-01
3.710	1.5432837E-01
3.715	1.2892744E-01
3.720	1.1044733E-01
3.725	9.6889331E-02
3.730	8.5036707E-02
3.735	7.2418274E-02
3.740	5.8074274E-02
3.745	4.2157698E-02
3.750	2.5596625E-02
3.755	9.4615832E-03
3.760	-5.8606147E-03
3.765	-2.0567365E-02
3.770	-3.5314031E-02
3.775	-5.0867086E-02
3.780	-6.7383053E-02
3.785	-8.4481057E-02
3.790	-1.0137582E-01
3.795	-1.1699033E-01
3.800	-1.3037649E-01
3.805	-1.4123924E-01
3.810	-1.4994360E-01
3.815	-1.5745784E-01
3.820	-1.6521772E-01
3.825	-1.7464258E-01
3.830	-1.8670604E-01
3.835	-2.0187614E-01
3.840	-2.2001972E-01
3.845	-2.4026612E-01
3.850	-2.6097432E-01
3.855	-2.7986082E-01
3.860	-2.9416116E-01
3.865	-3.0111967E-01
3.870	-2.9903755E-01
3.875	-2.8809032E-01
3.880	-2.6986726E-01
3.885	-2.4606440E-01
3.890	-2.1809974E-01
3.895	-1.8751275E-01
3.900	-1.5582274E-01
3.905	-1.2386485E-01
3.910	-9.1979288E-02
3.915	-6.0226447E-02
3.920	-2.8460987E-02
3.925	3.5749306E-03
3.930	3.6228857E-02
3.935	6.9830300E-02
3.940	1.0456284E-01
3.945	1.4033015E-01
3.950	1.7665763E-01
3.955	2.1257765E-01
3.960	2.4652448E-01
3.965	2.7637488E-01
3.970	2.9968515E-01
3.975	3.1401882E-01
3.980	3.1739106E-01
3.985	3.0878038E-01
3.990	2.8863496E-01
3.995	2.5920795E-01
4.000	2.2426287E-01
4.005	1.8745454E-01
4.010	1.5103807E-01
4.015	1.1637229E-01
4.020	8.4240916E-02
4.025	5.4933688E-02
4.030	2.8399207E-02
4.035	4.3827537E-03
4.040	-1.7509462E-02
4.045	-3.7487747E-02
4.050	-5.4906858E-02
4.055	-6.8323766E-02
4.060	-7.5860042E-02
4.065	-7.5586232E-02
4.070	-6.5996122E-02
4.075	-4.6564653E-02
4.080	-1.8182694E-02
4.085	1.6581647E-02
4.090	5.4147758E-02
4.095	9.1697605E-02
4.100	1.2683431E-01
4.105	1.5731129E-01
4.110	1.8123369E-01
4.115	1.9732922E-01
4.120	2.0532777E-01
4.125	2.0622298E-01
4.130	2.0241660E-01
4.135	1.9736116E-01
4.140	1.9423152E-01
4.145	1.9480991E-01
4.150	1.9975058E-01
4.155	2.0876765E-01
4.160	2.2103488E-01
4.165	2.3607732E-01
4.170	2.5357355E-01
4.175	2.7320855E-01
4.180	2.9478126E-01
4.185	3.1807084E-01
4.190	3.4264717E-01
4.195	3.6771116E-01
4.200	3.9199168E-01
4.205	4.1376489E-01
4.210	4.3108156E-01
4.215	4.4205695E-01
4.220	4.4503208E-01
4.225	4.3881854E-01
4.230	4.2277055E-01
4.235	3.9660256E-01
4.240	3.6087539E-01
4.245	3.1737201E-01
4.250	2.6861516E-01
4.255	2.1626761E-01
4.260	1.6065192E-01
4.265	1.0147319E-01
4.270	3.8382574E-02
4.275	-2.8376884E-02
4.280	-9.7502204E-02
4.285	-1.6659477E-01
4.290	-2.3267758E-01
4.295	-2.9346685E-01
4.300	-3.4794899E-01
4.305	-3.9615733E-01
4.310	-4.3851691E-01
4.315	-4.7451130E-01
4.320	-5.0317060E-01
4.325	-5.2354762E-01
4.330	-5.3480584E-01
4.335	-5.3642082E-01
4.340	-5.2864575E-01
4.345	-5.1272362E-01
4.350	-4.9025922E-01
4.355	-4.6224769E-01
4.360	-4.2969605E-01
4.365	-3.9411741E-01
4.370	-3.5763025E-01
4.375	-3.2254338E-01
4.380	-2.9029280E-01
4.385	-2.6155854E-01
4.390	-2.3638421E-01
4.395	-2.1415675E-01
4.400	-1.9390403E-01
4.405	-1.7496457E-01
4.410	-1.5682805E-01
4.415	-1.3899210E-01
4.420	-1.2099670E-01
4.425	-1.0256840E-01
4.430	-8.3732392E-02
4.435	-6.4746797E-02
4.440	-4.6037040E-02
4.445	-2.8140569E-02
4.450	-1.1620226E-02
4.455	3.0456900E-03
4.460	1.5614810E-02
4.465	2.6176256E-02
4.470	3.5237194E-02
4.475	4.3756274E-02
4.480	5.3103920E-02
4.485	6.4767264E-02
4.490	7.9796763E-02
4.495	9.8698066E-02
4.500	1.2134875E-01
4.505	1.4688539E-01
4.510	1.7385902E-01
4.515	2.0079735E-01
4.520	2.2643703E-01
4.525	2.4961783E-01
4.530	2.6929002E-01
4.535	2.8456184E-01
4.540	2.9464391E-01
4.545	2.9878164E-01
4.550	2.9654739E-01
4.555	2.8814114E-01
4.560	2.7456015E-01
4.565	2.5754946E-01
4.570	2.3884005E-01
4.575	2.1911498E-01
4.580	1.9833634E-01
4.585	1.7608014E-01
4.590	1.5169100E-01
4.595	1.2453831E-01
4.600	9.4235218E-02
4.605	6.0810519E-02
4.610	2.4787765E-02
4.615	-1.2889796E-02
4.620	-5.1363796E-02
4.625	-9.0243376E-02
4.630	-1.2946806E-01
4.635	-1.6917196E-01
4.640	-2.0960121E-01
4.645	-2.5096606E-01
4.650	-2.9341636E-01
4.655	-3.3700751E-01
4.660	-3.8175593E-01
4.665	-4.2752649E-01
4.670	-4.7390902E-01
4.675	-5.2011356E-01
4.680	-5.6493144E-01
4.685	-6.0673347E-01
4.690	-6.4357120E-01
4.695	-6.7329779E-01
4.700	-6.9374582E-01
4.705	-7.0309376E-01
4.710	-7.0031748E-01
4.715	-6.8542652E-01
4.720	-6.5922396E-01
4.725	-6.2312678E-01
4.730	-5.7955903E-01
4.735	-5.3131530E-01
4.740	-4.7964178E-01
4.745	-4.2485054E-01
4.750	-3.6694657E-01
4.755	-3.0588030E-01
4.760	-2.4164605E-01
4.765	-1.7414276E-01
4.770	-1.0355064E-01
4.775	-3.0697591E-02
4.780	4.2757082E-02
4.785	1.1433827E-01
4.790	1.8110521E-01
4.795	2.3983600E-01
4.800	2.8729050E-01
4.805	3.2053375E-01
4.810	3.3717794E-01
4.815	3.3579900E-01
4.820	3.1684592E-01
4.825	2.8327707E-01
4.830	2.4046726E-01
4.835	1.9415780E-01
4.840	1.4754046E-01
4.845	1.0209953E-01
4.850	5.8368986E-02
4.855	1.6360849E-02
4.860	-2.3690882E-02
4.865	-6.1335275E-02
4.870	-9.5942478E-02
4.875	-1.2670878E-01
4.880	-1.5267932E-01
4.885	-1.7276636E-01
4.890	-1.8602165E-01
4.895	-1.9188890E-01
4.900	-1.9021669E-01
4.905	-1.8113279E-01
4.910	-1.6538890E-01
4.915	-1.4410246E-01
4.920	-1.1769351E-01
4.925	-8.6413187E-02
4.930	-5.0835527E-02
4.935	-1.1888404E-02
4.940	2.9499686E-02
4.945	7.2408151E-02
4.950	1.1559718E-01
4.955	1.5731991E-01
4.960	1.9528149E-01
4.965	2.2667988E-01
4.970	2.4836581E-01
4.975	2.5731014E-01
4.980	2.5125317E-01
4.985	2.2950689E-01
4.990	1.9379820E-01
4.995	1.4779768E-01
5.000	9.5081746E-02
5.005	3.8543399E-02
5.010	-1.8950111E-02
5.015	-7.4620503E-02
5.020	-1.2626938E-01
5.025	-1.7213173E-01
5.030	-2.1079535E-01
5.035	-2.4116223E-01
5.040	-2.6239243E-01
5.045	-2.7417043E-01
5.050	-2.7660968E-01
5.055	-2.6957844E-01
5.060	-2.5301822E-01
5.065	-2.2744299E-01
5.070	-1.9372472E-01
5.075	-1.5263917E-01
5.080	-1.0548646E-01
5.085	-5.4546704E-02
5.090	-2.6892550E-03
5.095	4.7963480E-02
5.100	9.6450756E-02
5.105	1.4201385E-01
5.110	1.8288529E-01
5.115	2.1660208E-01
5.120	2.4055306E-01
5.125	2.5254049E-01
5.130	2.5168468E-01
5.135	2.3898775E-01
5.140	2.1751109E-01
5.145	1.9125574E-01
5.150	1.6250031E-01
5.155	1.3244786E-01
5.160	1.0190028E-01
5.165	7.1369880E-02
5.170	4.1180575E-02
5.175	1.1514005E-02
5.180	-1.7478757E-02
5.185	-4.5612627E-02
5.190	-7.2634032E-02
5.195	-9.8199722E-02
5.200	-1.2185596E-01
5.205	-1.4312696E-01
5.210	-1.6167480E-01
5.215	-1.7742822E-01
5.220	-1.9068417E-01
5.225	-2.0196817E-01
5.230	-2.1160197E-01
5.235	-2.1987481E-01
5.240	-2.2719103E-01
5.245	-2.3404946E-01
5.250	-2.4086832E-01
5.255	-2.4772075E-01
5.260	-2.5439528E-01
5.265	-2.6045702E-01
5.270	-2.6529120E-01
5.275	-2.6819292E-01
5.280	-2.6850769E-01
5.285	-2.6576237E-01
5.290	-2.5978873E-01
5.295	-2.5083224E-01
5.300	-2.3955628E-01
5.305	-2.2673119E-01
5.310	-2.1278445E-01
5.315	-1.9799029E-01
5.320	-1.8263300E-01
5.325	-1.6707046E-01
5.330	-1.5176005E-01
5.335	-1.3722293E-01
5.340	-1.2399342E-01
5.345	-1.1260367E-01
5.350	-1.0353274E-01
5.355	-9.7134152E-02
5.360	-9.3630884E-02
5.365	-9.3226215E-02
5.370	-9.5880903E-02
5.375	-1.0112132E-01
5.380	-1.0793631E-01
5.385	-1.1494999E-01
5.390	-1.2091814E-01
5.395	-1.2465580E-01
5.400	-1.2499101E-01
5.405	-1.2087528E-01
5.410	-1.1140756E-01
5.415	-9.5799296E-02
5.420	-7.3698091E-02
5.425	-4.5555280E-02
5.430	-1.2829502E-02
5.435	2.1946391E-02
5.440	5.5858983E-02
5.445	8.7153561E-02
5.450	1.1504465E-01
5.455	1.3944594E-01
5.460	1.6073369E-01
5.465	1.7908564E-01
5.470	1.9452971E-01
5.475	2.0716433E-01
5.480	2.1730165E-01
5.485	2.2554239E-01
5.490	2.3280664E-01
5.495	2.4008788E-01
5.500	2.4791049E-01
5.505	2.5638176E-01
5.510	2.6525220E-01
5.515	2.7386493E-01
5.520	2.8112015E-01
5.525	2.8538481E-01
5.530	2.8445479E-01
5.535	2.7583581E-01
5.540	2.5714446E-01
5.545	2.2658858E-01
5.550	1.8349283E-01
5.555	1.2875667E-01
5.560	6.4854585E-02
5.565	-5.1629314E-03
5.570	-7.8481635E-02
5.575	-1.5201801E-01
5.580	-2.2246341E-01
5.585	-2.8706859E-01
5.590	-3.4380723E-01
5.595	-3.9137972E-01
5.600	-4.2914442E-01
5.605	-4.5675482E-01
5.610	-4.7442510E-01
5.615	-4.8329308E-01
5.620	-4.8504631E-01
5.625	-4.8063240E-01
5.630	-4.7044360E-01
5.635	-4.5492540E-01
5.640	-4.3464140E-01
5.645	-4.0990596E-01
5.650	-3.8102532E-01
5.655	-3.4871178E-01
5.660	-3.1424550E-01
5.665	-2.7932669E-01
5.670	-2.4529939E-01
5.675	-2.1253266E-01
5.680	-1.8057140E-01
5.685	-1.4830768E-01
5.690	-1.1416414E-01
5.695	-7.6645521E-02
5.700	-3.4819241E-02
5.705	1.1555351E-02
5.710	6.1926317E-02
5.715	1.1497889E-01
5.720	1.6906852E-01
5.725	2.2236383E-01
5.730	2.7279977E-01
5.735	3.1825844E-01
5.740	3.5704291E-01
5.745	3.8813925E-01
5.750	4.1140223E-01
5.755	4.2767148E-01
5.760	4.3834811E-01
5.765	4.4417397E-01
5.770	4.4531893E-01
5.775	4.4183274E-01
5.780	4.3385800E-01
5.785	4.2160826E-01
5.790	4.0487326E-01
5.795	3.8274359E-01
5.800	3.5411548E-01
5.805	3.1816944E-01
5.810	2.7459882E-01
5.815	2.2363973E-01
5.820	1.6654313E-01
5.825	1.0589417E-01
5.830	4.5583095E-02
5.835	-1.0222637E-02
5.840	-5.9269405E-02
5.845	-1.0096894E-01
5.850	-1.3568094E-01
5.855	-1.6352236E-01
5.860	-1.8406186E-01
5.865	-1.9691897E-01
5.870	-2.0217794E-01
5.875	-2.0052741E-01
5.880	-1.9308566E-01
5.885	-1.8158204E-01
5.890	-1.6832921E-01
5.895	-1.5542941E-01
5.900	-1.4410435E-01
5.905	-1.3492850E-01
5.910	-1.2795127E-01
5.915	-1.2269953E-01
5.920	-1.1824612E-01
5.925	-1.1348879E-01
5.930	-1.0752606E-01
5.935	-9.9656742E-02
5.940	-8.9396027E-02
5.945	-7.6566984E-02
5.950	-6.1365799E-02
5.955	-4.4403596E-02
5.960	-2.6589143E-02
5.965	-8.7857728E-03
5.970	8.3518851E-03
5.975	2.4332047E-02
5.980	3.8847865E-02
5.985	5.1822461E-02
5.990	6.3457769E-02
5.995	7.4249922E-02
6.000	8.4928500E-02
6.005	9.6248791E-02
6.010	1.0888801E-01
6.015	1.2341232E-01
6.020	1.4021054E-01
6.025	1.5940762E-01
6.030	1.8080013E-01
6.035	2.0392050E-01
6.040	2.2828361E-01
6.045	2.5326978E-01
6.050	2.7804175E-01
6.055	3.0155365E-01
6.060	3.2263837E-01
6.065	3.4023985E-01
6.070	3.5372518E-01
6.075	3.6300284E-01
6.080	3.6860983E-01
6.085	3.7174430E-01
6.090	3.7391083E-01
6.095	3.7605937E-01
6.100	3.7848278E-01
6.105	3.8095513E-01
6.110	3.8275106E-01
6.115	3.8269424E-01
6.120	3.7924549E-01
6.125	3.7068029E-01
6.130	3.5530773E-01
6.135	3.3174452E-01
6.140	2.9904042E-01
6.145	2.5651131E-01
6.150	2.0396877E-01
6.155	1.4227994E-01
6.160	7.3685743E-02
6.165	1.3779894E-03
6.170	-7.1989033E-02
6.175	-1.4427266E-01
6.180	-2.1347031E-01
6.185	-2.7770538E-01
6.190	-3.3541642E-01
6.195	-3.8545287E-01
6.200	-4.2719275E-01
6.205	-4.6037918E-01
6.210	-4.8454493E-01
6.215	-4.9922851E-01
6.220	-5.0431334E-01
6.225	-4.9967661E-01
6.230	-4.8460971E-01
6.235	-4.5857989E-01
6.240	-4.2176048E-01
6.245	-3.7503756E-01
6.250	-3.2043596E-01
6.255	-2.6145526E-01
6.260	-2.0221907E-01
6.265	-1.4533125E-01
6.270	-9.2239379E-02
6.275	-4.3642780E-02
6.280	3.8915827E-04
6.285	3.9878608E-02
6.290	7.4633992E-02
6.295	1.0450028E-01
6.300	1.2958341E-01
6.305	1.5012216E-01
6.310	1.6607484E-01
6.315	1.7745030E-01
6.320	1.8463031E-01
6.325	1.8841206E-01
6.330	1.8960834E-01
6.335	1.8842249E-01
6.340	1.8479148E-01
6.345	1.7869485E-01
6.350	1.7029861E-01
6.355	1.6005719E-01
6.360	1.4859585E-01
6.365	1.3631475E-01
6.370	1.2340928E-01
6.375	1.1002016E-01
6.380	9.6294931E-02
6.385	8.2445236E-02
6.390	6.8797620E-02
6.395	5.5790971E-02
6.400	4.3927830E-02
6.405	3.3714231E-02
6.410	2.5544862E-02
6.415	1.9569437E-02
6.420	1.5506004E-02
6.425	1.2528706E-02
6.430	9.2657348E-03
6.435	3.9062415E-03
6.440	-5.3781791E-03
6.445	-1.9637243E-02
6.450	-3.9004716E-02
6.455	-6.2589649E-02
6.460	-8.8396876E-02
6.465	-1.1360496E-01
6.470	-1.3554006E-01
6.475	-1.5252949E-01
6.480	-1.6390462E-01
6.485	-1.7002604E-01
6.490	-1.7226547E-01
6.495	-1.7238213E-01
6.500	-1.7165547E-01
6.505	-1.7110967E-01
6.510	-1.7169619E-01
6.515	-1.7427494E-01
6.520	-1.7964540E-01
6.525	-1.8860549E-01
6.530	-2.0182302E-01
6.535	-2.1959986E-01
6.540	-2.4166296E-01
6.545	-2.6697793E-01
6.550	-2.9375067E-01
6.555	-3.1972449E-01
6.560	-3.4234233E-01
6.565	-3.5878489E-01
6.570	-3.6623337E-01
6.575	-3.6235943E-01
6.580	-3.4609904E-01
6.585	-3.1830786E-01
6.590	-2.8194090E-01
6.595	-2.4124474E-01
6.600	-1.9958088E-01
6.605	-1.5931156E-01
6.610	-1.2224445E-01
6.615	-8.9629354E-02
6.620	-6.1997629E-02
6.625	-3.9029937E-02
6.630	-1.9555735E-02
6.635	-1.6584948E-03
6.640	1.6697210E-02
6.645	3.6340447E-02
6.650	5.6755008E-02
6.655	7.6382942E-02
6.660	9.2948391E-02
6.665	1.0419923E-01
6.670	1.0884425E-01
6.675	1.0679874E-01
6.680	9.9334009E-02
6.685	8.9040043E-02
6.690	7.8960604E-02
6.695	7.1339314E-02
6.700	6.7739538E-02
6.705	6.9077325E-02
6.710	7.5424405E-02
6.715	8.5896863E-02
6.720	9.8846584E-02
6.725	1.1261303E-01
6.730	1.2580741E-01
6.735	1.3715307E-01
6.740	1.4545784E-01
6.745	1.4968474E-01
6.750	1.4896448E-01
6.755	1.4252747E-01
6.760	1.2996928E-01
6.765	1.1151495E-01
6.770	8.8169214E-02
6.775	6.1471117E-02
6.780	3.2657323E-02
6.785	2.7360246E-03
6.790	-2.7203428E-02
6.795	-5.5885025E-02
6.800	-8.1852904E-02
6.805	-1.0366977E-01
6.810	-1.2033063E-01
6.815	-1.3137605E-01
6.820	-1.3698985E-01
6.825	-1.3794935E-01
6.830	-1.3518678E-01
6.835	-1.2965541E-01
6.840	-1.2226728E-01
6.845	-1.1338066E-01
6.850	-1.0286724E-01
6.855	-9.0384341E-02
6.860	-7.5556200E-02
6.865	-5.8152539E-02
6.870	-3.8230156E-02
6.875	-1.6201321E-02
6.880	7.3623068E-03
6.885	3.2038473E-02
6.890	5.7382684E-02
6.895	8.2787919E-02
6.900	1.0745546E-01
6.905	1.3039669E-01
6.910	1.5049670E-01
6.915	1.6663295E-01
6.920	1.7786581E-01
6.925	1.8362057E-01
6.930	1.8384594E-01
6.935	1.7899886E-01
6.940	1.6962055E-01
6.945	1.5603735E-01
6.950	1.3864966E-01
6.955	1.1797167E-01
6.960	9.4231606E-02
6.965	6.7355476E-02
6.970	3.7278959E-02
6.975	4.1884882E-03
6.980	-3.1386332E-02
6.985	-6.8744296E-02
6.990	-1.0732968E-01
6.995	-1.4652522E-01
7.000	-1.8551379E-01
7.005	-2.2326076E-01
7.010	-2.5861125E-01
7.015	-2.9052342E-01
7.020	-3.1831845E-01
7.025	-3.4178635E-01
7.030	-3.6127284E-01
7.035	-3.7758002E-01
7.040	-3.9144236E-01
7.045	-4.0312372E-01
7.050	-4.1263733E-01
7.055	-4.1988532E-01
7.060	-4.2455802E-01
7.065	-4.2586044E-01
7.070	-4.2274961E-01
7.075	-4.1423170E-01
7.080	-3.9958228E-01
7.085	-3.7850315E-01
7.090	-3.5090186E-01
7.095	-3.1655455E-01
7.100	-2.7559444E-01
7.105	-2.2894147E-01
7.110	-1.7846883E-01
7.115	-1.2664359E-01
7.120	-7.5379119E-02
7.125	-2.6015587E-02
7.130	2.0418822E-02
7.135	6.3068543E-02
7.140	1.0102616E-01
7.145	1.3323331E-01
7.150	1.5873030E-01
7.155	1.7688488E-01
7.160	1.8736751E-01
7.165	1.8976014E-01
7.170	1.8390201E-01
7.175	1.7038334E-01
7.180	1.5081065E-01
7.185	1.2732855E-01
7.190	1.0125423E-01
7.195	7.3543243E-02
7.200	4.5223516E-02
7.205	1.7470440E-02
7.210	-8.5013226E-03
7.215	-3.1808020E-02
7.220	-5.1895431E-02
7.225	-6.8561986E-02
7.230	-8.2026741E-02
7.235	-9.2853648E-02
7.240	-1.0155661E-01
7.245	-1.0831931E-01
7.250	-1.1323116E-01
7.255	-1.1647105E-01
7.260	-1.1839292E-01
7.265	-1.1948312E-01
7.270	-1.2009960E-01
7.275	-1.2040370E-01
7.280	-1.2047808E-01
7.285	-1.2039286E-01
7.290	-1.2023162E-01
7.295	-1.2010420E-01
7.300	-1.2014369E-01
7.305	-1.2049155E-01
7.310	-1.2127026E-01
7.315	-1.2254724E-01
7.320	-1.2429546E-01
7.325	-1.2635690E-01
7.330	-1.2841768E-01
7.335	-1.3000433E-01
7.340	-1.3050818E-01
7.345	-1.2924598E-01
7.350	-1.2555766E-01
7.355	-1.1893954E-01
7.360	-1.0920081E-01
7.365	-9.6627352E-02
7.370	-8.2114292E-02
7.375	-6.7222779E-02
7.380	-5.4096585E-02
7.385	-4.4966405E-02
7.390	-4.1116865E-02
7.395	-4.2633588E-02
7.400	-4.8465864E-02
7.405	-5.6776954E-02
7.410	-6.5966221E-02
7.415	-7.5062133E-02
7.420	-8.3504073E-02
7.425	-9.1056079E-02
7.430	-9.7792590E-02
7.435	-1.0402320E-01
7.440	-1.1011893E-01
7.445	-1.1641301E-01
7.450	-1.2317932E-01
7.455	-1.3059209E-01
7.460	-1.3868110E-01
7.465	-1.4730295E-01
7.470	-1.5616953E-01
7.475	-1.6495073E-01
7.480	-1.7329221E-01
7.485	-1.8081572E-01
7.490	-1.8715175E-01
7.495	-1.9197674E-01
7.500	-1.9504907E-01
7.505	-1.9614116E-01
7.510	-1.9482658E-01
7.515	-1.9058548E-01
7.520	-1.8302773E-01
7.525	-1.7209224E-01
7.530	-1.5822637E-01
7.535	-1.4252287E-01
7.540	-1.2675188E-01
7.545	-1.1308847E-01
7.550	-1.0342527E-01
7.555	-9.9133440E-02
7.560	-1.0091533E-01
7.565	-1.0857382E-01
7.570	-1.2083062E-01
7.575	-1.3549507E-01
7.580	-1.5021707E-01
7.585	-1.6280613E-01
7.590	-1.7113020E-01
7.595	-1.7321635E-01
7.600	-1.6748810E-01
7.605	-1.5301987E-01
7.610	-1.2970886E-01
7.615	-9.8703731E-02
7.620	-6.2683480E-02
7.625	-2.5863802E-02
7.630	6.9465269E-03
7.635	3.2517278E-02
7.640	4.9591194E-02
7.645	5.8631467E-02
7.650	6.1463366E-02
7.655	5.9988834E-02
7.660	5.5227769E-02
7.665	4.7740121E-02
7.670	3.7955156E-02
7.675	2.6277600E-02
7.680	1.3190822E-02
7.685	-8.6974091E-04
7.690	-1.5858112E-02
7.695	-3.1919692E-02
7.700	-4.9179850E-02
7.705	-6.7652044E-02
7.710	-8.7264888E-02
7.715	-1.0806102E-01
7.720	-1.3004670E-01
7.725	-1.5304721E-01
7.730	-1.7661986E-01
7.735	-1.9998834E-01
7.740	-2.2200907E-01
7.745	-2.4117225E-01
7.750	-2.5568679E-01
7.755	-2.6368845E-01
7.760	-2.6351563E-01
7.765	-2.5398889E-01
7.770	-2.3454025E-01
7.775	-2.0543294E-01
7.780	-1.6815984E-01
7.785	-1.2539338E-01
7.790	-7.9934435E-02
7.795	-3.3895720E-02
7.800	1.0883703E-02
7.805	5.2595116E-02
7.810	8.9530834E-02
7.815	1.2023072E-01
7.820	1.4370945E-01
7.825	1.5969562E-01
7.830	1.6885374E-01
7.835	1.7288040E-01
7.840	1.7391895E-01
7.845	1.7311643E-01
7.850	1.7102716E-01
7.855	1.6801830E-01
7.860	1.6439607E-01
7.865	1.6052376E-01
7.870	1.5685638E-01
7.875	1.5383191E-01
7.880	1.5167918E-01
7.885	1.5046017E-01
7.890	1.5010041E-01
7.895	1.5037864E-01
7.900	1.5101557E-01
7.905	1.5187368E-01
7.910	1.5289081E-01
7.915	1.5400547E-01
7.920	1.5513475E-01
7.925	1.5616592E-01
7.930	1.5699578E-01
7.935	1.5753370E-01
7.940	1.5768131E-01
7.945	1.5731810E-01
7.950	1.5627396E-01
7.955	1.5427582E-01
7.960	1.5098741E-01
7.965	1.4605725E-01
7.970	1.3915950E-01
7.975	1.2995450E-01
7.980	1.1794539E-01
7.985	1.0265961E-01
7.990	8.3837643E-02
7.995	6.1534424E-02
8.000	3.6012862E-02
8.005	7.5518360E-03
8.010	-2.3290729E-02
8.015	-5.5463920E-02
8.020	-8.7412420E-02
8.025	-1.1729237E-01
8.030	-1.4323147E-01
8.035	-1.6340948E-01
8.040	-1.7624984E-01
8.045	-1.8063634E-01
8.050	-1.7606397E-01
8.055	-1.6298478E-01
8.060	-1.4310225E-01
8.065	-1.1910406E-01
8.070	-9.3494845E-02
8.075	-6.8182637E-02
8.080	-4.4781188E-02
8.085	-2.4675502E-02
8.090	-8.8467317E-03
8.095	2.4178865E-03
8.100	9.6963057E-03
8.105	1.4498429E-02
8.110	1.9243716E-02
8.115	2.6861533E-02
8.120	3.9828264E-02
8.125	5.9602187E-02
8.130	8.6522954E-02
8.135	1.1965889E-01
8.140	1.5690153E-01
8.145	1.9568674E-01
8.150	2.3361606E-01
8.155	2.6829243E-01
8.160	2.9734892E-01
8.165	3.1878650E-01
8.170	3.3150561E-01
8.175	3.3547651E-01
8.180	3.3157909E-01
8.185	3.2087979E-01
8.190	3.0450677E-01
8.195	2.8403764E-01
8.200	2.6161963E-01
8.205	2.3936984E-01
8.210	2.1800426E-01
8.215	1.9714302E-01
8.220	1.7570684E-01
8.225	1.5230289E-01
8.230	1.2593852E-01
8.235	9.6258889E-02
8.240	6.3610769E-02
8.245	2.8935416E-02
8.250	-6.6954108E-03
8.255	-4.2067882E-02
8.260	-7.5740382E-02
8.265	-1.0612035E-01
8.270	-1.3165659E-01
8.275	-1.5107222E-01
8.280	-1.6360520E-01
8.285	-1.6922541E-01
8.290	-1.6859570E-01
8.295	-1.6254193E-01
8.300	-1.5199288E-01
8.305	-1.3832052E-01
8.310	-1.2340444E-01
8.315	-1.0916411E-01
8.320	-9.6860761E-02
8.325	-8.7230159E-02
8.330	-8.0567587E-02
8.335	-7.6700897E-02
8.340	-7.5048045E-02
8.345	-7.4934329E-02
8.350	-7.6019939E-02
8.355	-7.8137893E-02
8.360	-8.1134574E-02
8.365	-8.4787370E-02
8.370	-8.8725684E-02
8.375	-9.2389129E-02
8.380	-9.5085605E-02
8.385	-9.6198628E-02
8.390	-9.5239460E-02
8.395	-9.1876417E-02
8.400	-8.6009258E-02
8.405	-7.7836029E-02
8.410	-6.7823164E-02
8.415	-5.6383837E-02
8.420	-4.3438582E-02
8.425	-2.8648100E-02
8.430	-1.1657745E-02
8.435	7.7140679E-03
8.440	2.9228527E-02
8.445	5.1926260E-02
8.450	7.4069033E-02
8.455	9.3299202E-02
8.460	1.0719996E-01
8.465	1.1406283E-01
8.470	1.1307065E-01
8.475	1.0444873E-01
8.480	8.9504891E-02
8.485	6.9938737E-02
8.490	4.6864349E-02
8.495	2.1229744E-02
8.500	-5.8409338E-03
8.505	-3.3121957E-02
8.510	-5.9651389E-02
8.515	-8.4848781E-02
8.520	-1.0833860E-01
8.525	-1.2983849E-01
8.530	-1.4894420E-01
8.535	-1.6477077E-01
8.540	-1.7611298E-01
8.545	-1.8168869E-01
8.550	-1.8036048E-01
8.555	-1.7130860E-01
8.560	-1.5402887E-01
8.565	-1.2868787E-01
8.570	-9.5981393E-02
8.575	-5.6344568E-02
8.580	-1.0529435E-02
8.585	3.9884576E-02
8.590	9.2371806E-02
8.595	1.4401068E-01
8.600	1.9290553E-01
8.605	2.3793843E-01
8.610	2.7852121E-01
8.615	3.1440896E-01
8.620	3.4509587E-01
8.625	3.6944675E-01
8.630	3.8613602E-01
8.635	3.9409393E-01
8.640	3.9292138E-01
8.645	3.8324259E-01
8.650	3.6689961E-01
8.655	3.4624198E-01
8.660	3.2232762E-01
8.665	2.9547197E-01
8.670	2.6582378E-01
8.675	2.3356130E-01
8.680	1.9907293E-01
8.685	1.6294085E-01
8.690	1.2564173E-01
8.695	8.7491646E-02
8.700	4.8813662E-02
8.705	9.9888591E-03
8.710	-2.8613462E-02
8.715	-6.6605513E-02
8.720	-1.0358455E-01
8.725	-1.3915794E-01
8.730	-1.7301217E-01
8.735	-2.0496382E-01
8.740	-2.3501191E-01
8.745	-2.6332040E-01
8.750	-2.9001325E-01
8.755	-3.1488415E-01
8.760	-3.3755872E-01
8.765	-3.5764847E-01
8.770	-3.7486039E-01
8.775	-3.8900778E-01
8.780	-3.9990074E-01
8.785	-4.0755036E-01
8.790	-4.1234169E-01
8.795	-4.1509047E-01
8.800	-4.1676751E-01
8.805	-4.1782093E-01
8.810	-4.1832962E-01
8.815	-4.1817429E-01
8.820	-4.1707859E-01
8.825	-4.1468153E-01
8.830	-4.1059814E-01
8.835	-4.0450808E-01
8.840	-3.9621743E-01
8.845	-3.8571230E-01
8.850	-3.7301307E-01
8.855	-3.5783459E-01
8.860	-3.3975037E-01
8.865	-3.1839760E-01
8.870	-2.9358195E-01
8.875	-2.6532946E-01
8.880	-2.3370349E-01
8.885	-1.9872499E-01
8.890	-1.6052861E-01
8.895	-1.1937384E-01
8.900	-7.5635105E-02
8.905	-3.0050598E-02
8.910	1.6147924E-02
8.915	6.1295317E-02
8.920	1.0372658E-01
8.925	1.4214078E-01
8.930	1.7558303E-01
8.935	2.0332889E-01
8.940	2.2456795E-01
8.945	2.3823079E-01
8.950	2.4338401E-01
8.955	2.3939865E-01
8.960	2.2601643E-01
8.965	2.0384505E-01
8.970	1.7473888E-01
8.975	1.4141288E-01
8.980	1.0613160E-01
8.985	7.0744347E-02
8.990	3.7057340E-02
8.995	6.8379101E-03
9.000	-1.8431801E-02
9.005	-3.7936043E-02
9.010	-5.1676727E-02
9.015	-6.0590805E-02
9.020	-6.6592008E-02
9.025	-7.2065172E-02
9.030	-7.8619283E-02
9.035	-8.6970068E-02
9.040	-9.7187927E-02
9.045	-1.0879064E-01
9.050	-1.2102831E-01
9.055	-1.3340637E-01
9.060	-1.4567377E-01
9.065	-1.5778558E-01
9.070	-1.6993187E-01
9.075	-1.8252192E-01
9.080	-1.9615372E-01
9.085	-2.1153350E-01
9.090	-2.2932365E-01
9.095	-2.4995460E-01
9.100	-2.7343194E-01
9.105	-2.9916570E-01
9.110	-3.2584074E-01
9.115	-3.5137788E-01
9.120	-3.7304156E-01
9.125	-3.8791807E-01
9.130	-3.9380649E-01
9.135	-3.8965554E-01
9.140	-3.7578368E-01
9.145	-3.5386032E-01
9.150	-3.2611077E-01
9.155	-2.9467338E-01
9.160	-2.6181149E-01
9.165	-2.2954860E-01
9.170	-1.9888312E-01
9.175	-1.6996849E-01
9.180	-1.4226114E-01
9.185	-1.1467504E-01
9.190	-8.5902200E-02
9.195	-5.4644977E-02
9.200	-1.9716650E-02
9.205	1.9765647E-02
9.210	6.4264200E-02
9.215	1.1373656E-01
9.220	1.6743884E-01
9.225	2.2373382E-01
9.230	2.8010950E-01
9.235	3.3368436E-01
9.240	3.8243703E-01
9.245	4.2539264E-01
9.250	4.6249965E-01
9.255	4.9417545E-01
9.260	5.2027628E-01
9.265	5.4018509E-01
9.270	5.5329055E-01
9.275	5.5922831E-01
9.280	5.5798705E-01
9.285	5.4999343E-01
9.290	5.3641614E-01
9.295	5.1883798E-01
9.300	4.9822665E-01
9.305	4.7532745E-01
9.310	4.5103848E-01
9.315	4.2644376E-01
9.320	4.0268671E-01
9.325	3.8031869E-01
9.330	3.5852070E-01
9.335	3.3539934E-01
9.340	3.0870173E-01
9.345	2.7693307E-01
9.350	2.3970710E-01
9.355	1.9776845E-01
9.360	1.5294294E-01
9.365	1.0744905E-01
9.370	6.2924475E-02
9.375	2.0677132E-02
9.380	-1.7973357E-02
9.385	-5.1365208E-02
9.390	-7.7656174E-02
9.395	-9.5214994E-02
9.400	-1.0291741E-01
9.405	-1.0037831E-01
9.410	-8.8429798E-02
9.415	-6.9473381E-02
9.420	-4.7267695E-02
9.425	-2.5679669E-02
9.430	-7.6016285E-03
9.435	4.8141505E-03
9.440	1.0133256E-02
9.445	7.8380718E-03
9.450	-1.5950901E-03
9.455	-1.6917442E-02
9.460	-3.6072236E-02
9.465	-5.6018026E-02
9.470	-7.2905699E-02
9.475	-8.3029456E-02
9.480	-8.4119327E-02
9.485	-7.5424881E-02
9.490	-5.7728339E-02
9.495	-3.3147071E-02
9.500	-3.9849635E-03
9.505	2.8126029E-02
9.510	6.1831689E-02
9.515	9.5807835E-02
9.520	1.2898449E-01
9.525	1.6102572E-01
9.530	1.9220317E-01
9.535	2.2317086E-01
9.540	2.5477138E-01
9.545	2.8761381E-01
9.550	3.2176589E-01
9.555	3.5674554E-01
9.560	3.9165499E-01
9.565	4.2551054E-01
9.570	4.5756678E-01
9.575	4.8729510E-01
9.580	5.1439672E-01
9.585	5.3876255E-01
9.590	5.6017656E-01
9.595	5.7790998E-01
9.600	5.9095124E-01
9.605	5.9823970E-01
9.610	5.9876925E-01
9.615	5.9150820E-01
9.620	5.7546949E-01
9.625	5.5017068E-01
9.630	5.1600571E-01
9.635	4.7401271E-01
9.640	4.2493469E-01
9.645	3.6982506E-01
9.650	3.1054486E-01
9.655	2.4975879E-01
9.660	1.9017901E-01
9.665	1.3346820E-01
9.670	8.0518426E-02
9.675	3.1874578E-02
9.680	-1.1811674E-02
9.685	-4.9847237E-02
9.690	-8.1776042E-02
9.695	-1.0747073E-01
9.700	-1.2690204E-01
9.705	-1.3977877E-01
9.710	-1.4601308E-01
9.715	-1.4611374E-01
9.720	-1.4115222E-01
9.725	-1.3217250E-01
9.730	-1.2010790E-01
9.735	-1.0615820E-01
9.740	-9.1905398E-02
9.745	-7.9018008E-02
9.750	-6.8760634E-02
9.755	-6.2027899E-02
9.760	-5.9323820E-02
9.765	-6.0701023E-02
9.770	-6.5803516E-02
9.775	-7.3760232E-02
9.780	-8.3112787E-02
9.785	-9.2184619E-02
9.790	-9.9940970E-02
9.795	-1.0586519E-01
9.800	-1.0981976E-01
9.805	-1.1203751E-01
9.810	-1.1301228E-01
9.815	-1.1316055E-01
9.820	-1.1238340E-01
9.825	-1.1017862E-01
9.830	-1.0578506E-01
9.835	-9.8341754E-02
9.840	-8.7102987E-02
9.845	-7.1599922E-02
9.850	-5.1738359E-02
9.855	-2.7675475E-02
9.860	4.2107864E-04
9.865	3.2076059E-02
9.870	6.6305973E-02
9.875	1.0174741E-01
9.880	1.3721440E-01
9.885	1.7189537E-01
9.890	2.0521447E-01
9.895	2.3676006E-01
9.900	2.6620833E-01
9.905	2.9314683E-01
9.910	3.1720395E-01
9.915	3.3818711E-01
9.920	3.5620122E-01
9.925	3.7171631E-01
9.930	3.8553677E-01
9.935	3.9839939E-01
9.940	4.1043977E-01
9.945	4.2135852E-01
9.950	4.3059956E-01
9.955	4.3743812E-01
9.960	4.4110953E-01
9.965	4.4092439E-01
9.970	4.3640892E-01
9.975	4.2747337E-01
9.980	4.1452628E-01
9.985	3.9822246E-01
9.990	3.7871816E-01
9.995	3.5577266E-01
10.000	3.2911971E-01
10.005	2.9871859E-01
10.010	2.6494827E-01
10.015	2.2864321E-01
10.020	1.9086897E-01
10.025	1.5301560E-01
10.030	1.1689657E-01
10.035	8.4629821E-02
10.040	5.8228752E-02
10.045	3.9168545E-02
10.050	2.8130643E-02
10.055	2.4778159E-02
10.060	2.7686362E-02
10.065	3.4961553E-02
10.070	4.5152935E-02
10.075	5.6884668E-02
10.080	6.8595302E-02
10.085	7.8789073E-02
10.090	8.6590440E-02
10.095	9.1702613E-02
10.100	9.4322572E-02
10.105	9.5101779E-02
10.110	9.4849323E-02
10.115	9.4155336E-02
10.120	9.3485650E-02
10.125	9.3273423E-02
10.130	9.3917740E-02
10.135	9.5785421E-02
10.140	9.9183520E-02
10.145	1.0432558E-01
10.150	1.1127046E-01
10.155	1.1985298E-01
10.160	1.2961510E-01
10.165	1.3977795E-01
10.170	1.4932375E-01
10.175	1.5728190E-01
10.180	1.6287756E-01
10.185	1.6555359E-01
10.190	1.6503965E-01
10.195	1.6143975E-01
10.200	1.5526956E-01
10.205	1.4728489E-01
10.210	1.3793671E-01
10.215	1.2720770E-01
10.220	1.1481248E-01
10.225	1.0035459E-01
10.230	8.3443730E-02
10.235	6.3785683E-02
10.240	4.1171421E-02
10.245	1.5606937E-02
10.250	-1.2520414E-02
10.255	-4.2365648E-02
10.260	-7.2826752E-02
10.265	-1.0271536E-01
10.270	-1.3069988E-01
10.275	-1.5534180E-01
10.280	-1.7530693E-01
10.285	-1.8971433E-01
10.290	-1.9840809E-01
10.295	-2.0205224E-01
10.300	-2.0189371E-01
10.305	-1.9891128E-01
10.310	-1.9358302E-01
10.315	-1.8624135E-01
10.320	-1.7730449E-01
10.325	-1.6739607E-01
10.330	-1.5741547E-01
10.335	-1.4842114E-01
10.340	-1.4128070E-01
10.345	-1.3658937E-01
10.350	-1.3464665E-01
10.355	-1.3536510E-01
10.360	-1.3819622E-01
10.365	-1.4218495E-01
10.370	-1.4632284E-01
10.375	-1.4983202E-01
10.380	-1.5205462E-01
10.385	-1.5239468E-01
10.390	-1.5033480E-01
10.395	-1.4539019E-01
10.400	-1.3698887E-01
10.405	-1.2464578E-01
10.410	-1.0816086E-01
10.415	-8.7759701E-02
10.420	-6.4085764E-02
10.425	-3.7837482E-02
10.430	-9.5138313E-03
10.435	2.0310344E-02
10.440	5.0800790E-02
10.445	8.0870000E-02
10.450	1.0938906E-01
10.455	1.3528547E-01
10.460	1.5754207E-01
10.465	1.7525603E-01
10.470	1.8767317E-01
10.475	1.9410493E-01
10.480	1.9415648E-01
10.485	1.8799410E-01
10.490	1.7648686E-01
10.495	1.6074584E-01
10.500	1.4094927E-01
10.505	1.1681201E-01
10.510	8.8104191E-02
10.515	5.4914920E-02
10.520	1.7857236E-02
10.525	-2.2031684E-02
10.530	-6.3536995E-02
10.535	-1.0503960E-01
10.540	-1.4443234E-01
10.545	-1.7943990E-01
10.550	-2.0835420E-01
10.555	-2.3026443E-01
10.560	-2.4509299E-01
10.565	-2.5328562E-01
10.570	-2.5487950E-01
10.575	-2.4971101E-01
10.580	-2.3794369E-01
10.585	-2.2036569E-01
10.590	-1.9829947E-01
10.595	-1.7298351E-01
10.600	-1.4566958E-01
10.605	-1.1773555E-01
10.610	-9.0290008E-02
10.615	-6.4054197E-02
10.620	-3.9512132E-02
10.625	-1.6994911E-02
10.630	3.2187763E-03
10.635	2.0683290E-02
10.640	3.4852689E-02
10.645	4.5231734E-02
10.650	5.1501469E-02
10.655	5.3477325E-02
10.660	5.0831463E-02
10.665	4.3282298E-02
10.670	3.0887956E-02
10.675	1.4201508E-02
10.680	-6.0426515E-03
10.685	-2.9793183E-02
10.690	-5.7284386E-02
10.695	-8.8607707E-02
10.700	-1.2350074E-01
10.705	-1.6123737E-01
10.710	-2.0062428E-01
10.715	-2.3982730E-01
10.720	-2.7634820E-01
10.725	-3.0730801E-01
10.730	-3.3018151E-01
10.735	-3.4350929E-01
10.740	-3.4707857E-01
10.745	-3.4193331E-01
10.750	-3.2967175E-01
10.755	-3.1140124E-01
10.760	-2.8823588E-01
10.765	-2.6155337E-01
10.770	-2.3253111E-01
10.775	-2.0184683E-01
10.780	-1.6997145E-01
10.785	-1.3738098E-01
10.790	-1.0449314E-01
10.795	-7.1559308E-02
10.800	-3.8782103E-02
10.805	-6.4350815E-03
10.810	2.5149421E-02
10.815	5.5593588E-02
10.820	8.4517181E-02
10.825	1.1155666E-01
10.830	1.3641573E-01
10.835	1.5878030E-01
10.840	1.7805464E-01
10.845	1.9336053E-01
10.850	2.0384415E-01
10.855	2.0892652E-01
10.860	2.0846306E-01
10.865	2.0269549E-01
10.870	1.9240834E-01
10.875	1.7918654E-01
10.880	1.6538964E-01
10.885	1.5357346E-01
10.890	1.4597540E-01
10.895	1.4450311E-01
10.900	1.5061181E-01
10.905	1.6511657E-01
10.910	1.8812250E-01
10.915	2.1873511E-01
10.920	2.5484592E-01
10.925	2.9359501E-01
10.930	3.3277511E-01
10.935	3.7087594E-01
10.940	4.0677264E-01
10.945	4.3966392E-01
10.950	4.6907188E-01
10.955	4.9480532E-01
10.960	5.1696751E-01
10.965	5.3603036E-01
10.970	5.5286700E-01
10.975	5.6850030E-01
10.980	5.8345137E-01
10.985	5.9751017E-01
10.990	6.0994874E-01
10.995	6.1969108E-01
11.000	6.2548123E-01
11.005	6.2609221E-01
11.010	6.2052997E-01
11.015	6.0825108E-01
11.020	5.8943626E-01
11.025	5.6516280E-01
11.030	5.3693501E-01
11.035	5.0548573E-01
11.040	4.7117363E-01
11.045	4.3441341E-01
11.050	3.9580365E-01
11.055	3.5617232E-01
11.060	3.1639839E-01
11.065	2.7755268E-01
11.070	2.4094877E-01
11.075	2.0805314E-01
11.080	1.8021566E-01
11.085	1.5838326E-01
11.090	1.4292828E-01
11.095	1.3358371E-01
11.100	1.2976863E-01
11.105	1.3109642E-01
11.110	1.3697647E-01
11.115	1.4632235E-01
11.120	1.5770758E-01
11.125	1.7004772E-01
11.130	1.8279514E-01
11.135	1.9566285E-01
11.140	2.0845387E-01
11.145	2.2096510E-01
11.150	2.3290245E-01
11.155	2.4382234E-01
11.160	2.5311912E-01
11.165	2.6005054E-01
11.170	2.6377720E-01
11.175	2.6334117E-01
11.180	2.5748000E-01
11.185	2.4477059E-01
11.190	2.2407248E-01
11.195	1.9496894E-01
11.200	1.5813385E-01
11.205	1.1542313E-01
11.210	6.9424573E-02
11.215	2.3470149E-02
11.220	-1.8814245E-02
11.225	-5.4961824E-02
11.230	-8.4270636E-02
11.235	-1.0713831E-01
11.240	-1.2383579E-01
11.245	-1.3418295E-01
11.250	-1.3803293E-01
11.255	-1.3545008E-01
11.260	-1.2655180E-01
11.265	-1.1163605E-01
11.270	-9.1563043E-02
11.275	-6.7784257E-02
11.280	-4.1840934E-02
11.285	-1.5253055E-02
11.290	1.0237522E-02
11.295	3.2724472E-02
11.300	5.0587504E-02
11.305	6.2932430E-02
11.310	6.9699425E-02
11.315	7.1742891E-02
11.320	7.0836594E-02
11.325	6.9002384E-02
11.330	6.7034722E-02
11.335	6.4787953E-02
11.340	6.1555843E-02
11.345	5.6371300E-02
11.350	4.8421349E-02
11.355	3.7171688E-02
11.360	2.2495981E-02
11.365	4.8051631E-03
11.370	-1.5096820E-02
11.375	-3.6535507E-02
11.380	-5.9141789E-02
11.385	-8.2659187E-02
11.390	-1.0685769E-01
11.395	-1.3153171E-01
11.400	-1.5657067E-01
11.405	-1.8189008E-01
11.410	-2.0738354E-01
11.415	-2.3287971E-01
11.420	-2.5812342E-01
11.425	-2.8276468E-01
11.430	-3.0638176E-01
11.435	-3.2852080E-01
11.440	-3.4876596E-01
11.445	-3.6681965E-01
11.450	-3.8260730E-01
11.455	-3.9635470E-01
11.460	-4.0863285E-01
11.465	-4.2032488E-01
11.470	-4.3233210E-01
11.475	-4.4493175E-01
11.480	-4.5767458E-01
11.485	-4.6947565E-01
11.490	-4.7868459E-01
11.495	-4.8325548E-01
11.500	-4.8104330E-01
11.505	-4.7011824E-01
11.510	-4.4912112E-01
11.515	-4.1755320E-01
11.520	-3.7599451E-01
11.525	-3.2649384E-01
11.530	-2.7253098E-01
11.535	-2.1785221E-01
11.540	-1.6478243E-01
11.545	-1.1458334E-01
11.550	-6.7724431E-02
11.555	-2.3895548E-02
11.560	1.7812212E-02
11.565	5.8371302E-02
11.570	9.8400537E-02
11.575	1.3823785E-01
11.580	1.7799815E-01
11.585	2.1756051E-01
11.590	2.5660302E-01
11.595	2.9463570E-01
11.600	3.3107721E-01
11.605	3.6531074E-01
11.610	3.9674558E-01
11.615	4.2469373E-01
11.620	4.4823125E-01
11.625	4.6644207E-01
11.630	4.7868229E-01
11.635	4.8468310E-01
11.640	4.8447539E-01
11.645	4.7848771E-01
11.650	4.6777791E-01
11.655	4.5383183E-01
11.660	4.3770593E-01
11.665	4.1976923E-01
11.670	4.0003629E-01
11.675	3.7835750E-01
11.680	3.5447311E-01
11.685	3.2810956E-01
11.690	2.9915873E-01
11.695	2.6783858E-01
11.700	2.3469608E-01
11.705	2.0035319E-01
11.710	1.6529498E-01
11.715	1.3002691E-01
11.720	9.5156868E-02
11.725	6.1411570E-02
11.730	2.9598927E-02
11.735	5.6724903E-04
11.740	-2.4897967E-02
11.745	-4.6211001E-02
11.750	-6.3120447E-02
11.755	-7.5678708E-02
11.760	-8.4165467E-02
11.765	-8.9304568E-02
11.770	-9.2413430E-02
11.775	-9.5184946E-02
11.780	-9.9021538E-02
11.785	-1.0472548E-01
11.790	-1.1258471E-01
11.795	-1.2235381E-01
11.800	-1.3322526E-01
11.805	-1.4385263E-01
11.810	-1.5261495E-01
11.815	-1.5814115E-01
11.820	-1.5940754E-01
11.825	-1.5584902E-01
11.830	-1.4754375E-01
11.835	-1.3529163E-01
11.840	-1.2045181E-01
11.845	-1.0440283E-01
11.850	-8.8053700E-02
11.855	-7.2027998E-02
11.860	-5.6793324E-02
11.865	-4.2700762E-02
11.870	-3.0052207E-02
11.875	-1.9059846E-02
11.880	-9.7946445E-03
11.885	-2.1372244E-03
11.890	4.2616897E-03
11.895	9.9723078E-03
11.900	1.5627996E-02
11.905	2.1697908E-02
11.910	2.8534130E-02
11.915	3.6399501E-02
11.920	4.5441063E-02
11.925	5.5676869E-02
11.930	6.7006504E-02
11.935	7.9164194E-02
11.940	9.1667228E-02
11.945	1.0380219E-01
11.950	1.1468186E-01
11.955	1.2341051E-01
11.960	1.2921478E-01
11.965	1.3154526E-01
11.970	1.3019423E-01
11.975	1.2540569E-01
11.980	1.1777496E-01
11.985	1.0789034E-01
11.990	9.6512577E-02
11.995	8.4718817E-02
12.000	7.3863464E-02
12.005	6.5311880E-02
12.010	5.9781098E-02
12.015	5.7061634E-02
12.020	5.6130863E-02
12.025	5.5565518E-02
12.030	5.4333549E-02
12.035	5.1744253E-02
12.040	4.7393989E-02
12.045	4.1257543E-02
12.050	3.3735405E-02
12.055	2.5643660E-02
12.060	1.8053462E-02
12.065	1.2187238E-02
12.070	9.3375636E-03
12.075	1.0716507E-02
12.080	1.7232943E-02
12.085	2.9242197E-02
12.090	4.6296507E-02
12.095	6.6978393E-02
12.100	8.9001292E-02
12.105	1.0990654E-01
12.110	1.2768059E-01
12.115	1.4068343E-01
12.120	1.4769038E-01
12.125	1.4800063E-01
12.130	1.4142930E-01
12.135	1.2852121E-01
12.140	1.1072458E-01
12.145	9.0099537E-02
12.150	6.8281854E-02
12.155	4.6135141E-02
12.160	2.4070494E-02
12.165	2.2446951E-03
12.170	-1.9309453E-02
12.175	-4.0492170E-02
12.180	-6.1093106E-02
12.185	-8.0764223E-02
12.190	-9.9024986E-02
12.195	-1.1530105E-01
12.200	-1.2901832E-01
12.205	-1.3972344E-01
12.210	-1.4724105E-01
12.215	-1.5179092E-01
12.220	-1.5400662E-01
12.225	-1.5459593E-01
12.230	-1.5386098E-01
12.235	-1.5191161E-01
12.240	-1.4886538E-01
12.245	-1.4492584E-01
12.250	-1.4046160E-01
12.255	-1.3603011E-01
12.260	-1.3233670E-01
12.265	-1.3005047E-01
12.270	-1.2962750E-01
12.275	-1.3125701E-01
12.280	-1.3480067E-01
12.285	-1.3973280E-01
12.290	-1.4524455E-01
12.295	-1.5056952E-01
12.300	-1.5500158E-01
12.305	-1.5784592E-01
12.310	-1.5845239E-01
12.315	-1.5629326E-01
12.320	-1.5104504E-01
12.325	-1.4266416E-01
12.330	-1.3126588E-01
12.335	-1.1675003E-01
12.340	-9.8933692E-02
12.345	-7.7931158E-02
12.350	-5.4476443E-02
12.355	-3.0094570E-02
12.360	-6.9723834E-03
12.365	1.2284476E-02
12.370	2.6274718E-02
12.375	3.6745846E-02
12.380	4.4525399E-02
12.385	4.9527074E-02
12.390	5.1510853E-02
12.395	5.0155324E-02
12.400	4.5298933E-02
12.405	3.7072307E-02
12.410	2.6063509E-02
12.415	1.3301320E-02
12.420	-1.2198444E-04
12.425	-1.3634997E-02
12.430	-2.6987876E-02
12.435	-4.0094579E-02
12.440	-5.2944663E-02
12.445	-6.5473624E-02
12.450	-7.7577325E-02
12.455	-8.9138809E-02
12.460	-1.0005033E-01
12.465	-1.1024684E-01
12.470	-1.1973886E-01
12.475	-1.2864304E-01
12.480	-1.3722753E-01
12.485	-1.4593238E-01
12.490	-1.5536061E-01
12.495	-1.6616695E-01
12.500	-1.7882859E-01
12.505	-1.9355511E-01
12.510	-2.1024011E-01
12.515	-2.2841916E-01
12.520	-2.4728103E-01
12.525	-2.6594118E-01
12.530	-2.8402582E-01
12.535	-3.0159133E-01
12.540	-3.1900727E-01
12.545	-3.3685833E-01
12.550	-3.5571437E-01
12.555	-3.7597349E-01
12.560	-3.9777108E-01
12.565	-4.2087200E-01
12.570	-4.4457347E-01
12.575	-4.6768333E-01
12.580	-4.8863825E-01
12.585	-5.0566840E-01
12.590	-5.1689748E-01
12.595	-5.2051938E-01
12.600	-5.1492200E-01
12.605	-4.9863698E-01
12.610	-4.7063276E-01
12.615	-4.3090579E-01
12.620	-3.8088920E-01
12.625	-3.2326979E-01
12.630	-2.6075553E-01
12.635	-1.9558223E-01
12.640	-1.2935977E-01
12.645	-6.2559108E-02
12.650	5.1107317E-03
12.655	7.4232944E-02
12.660	1.4514151E-01
12.665	2.1704993E-01
12.670	2.8802340E-01
12.675	3.5508713E-01
12.680	4.1451396E-01
12.685	4.6260671E-01
12.690	4.9723431E-01
12.695	5.1863881E-01
12.700	5.2923950E-01
12.705	5.3211996E-01
12.710	5.2898926E-01
12.715	5.2095877E-01
12.720	5.0918382E-01
12.725	4.9489497E-01
12.730	4.7899533E-01
12.735	4.6142669E-01
12.740	4.4153907E-01
12.745	4.1848487E-01
12.750	3.9155820E-01
12.755	3.6051678E-01
12.760	3.2572752E-01
12.765	2.8817233E-01
12.770	2.4898738E-01
12.775	2.0881773E-01
12.780	1.6801042E-01
12.785	1.2679408E-01
12.790	8.5309688E-02
12.795	4.3672615E-02
12.800	2.0086434E-03
12.805	-3.9479473E-02
12.810	-8.0491653E-02
12.815	-1.2058588E-01
12.820	-1.5917396E-01
12.825	-1.9550415E-01
12.830	-2.2871825E-01
12.835	-2.5797383E-01
12.840	-2.8260073E-01
12.845	-3.0212162E-01
12.850	-3.1613149E-01
12.855	-3.2460284E-01
12.860	-3.2815488E-01
12.865	-3.2807048E-01
12.870	-3.2578631E-01
12.875	-3.2213198E-01
12.880	-3.1760591E-01
12.885	-3.1259965E-01
12.890	-3.0742098E-01
12.895	-3.0223853E-01
12.900	-2.9696839E-01
12.905	-2.9134335E-01
12.910	-2.8497259E-01
12.915	-2.7739176E-01
12.920	-2.6810656E-01
12.925	-2.5665449E-01
12.930	-2.4269626E-01
12.935	-2.2611446E-01
12.940	-2.0701581E-01
12.945	-1.8561009E-01
12.950	-1.6229801E-01
12.955	-1.3780321E-01
12.960	-1.1319799E-01
12.965	-8.9725246E-02
12.970	-6.8318159E-02
12.975	-4.9512534E-02
12.980	-3.3466110E-02
12.985	-1.9951923E-02
12.990	-8.5426187E-03
12.995	8.9582721E-04
13.000	8.2438011E-03
13.005	1.3326410E-02
13.010	1.6054486E-02
13.015	1.6527314E-02
13.020	1.5084283E-02
13.025	1.2159751E-02
13.030	8.0592997E-03
13.035	3.0902545E-03
13.040	-2.3421916E-03
13.045	-7.8204426E-03
13.050	-1.3132326E-02
13.055	-1.8285130E-02
13.060	-2.3433131E-02
13.065	-2.8843407E-02
13.070	-3.4839840E-02
13.075	-4.1741298E-02
13.080	-4.9762108E-02
13.085	-5.8899489E-02
13.090	-6.8704486E-02
13.095	-7.7971994E-02
13.100	-8.4831212E-02
13.105	-8.7001759E-02
13.110	-8.2292038E-02
13.115	-6.9559585E-02
13.120	-4.9220777E-02
13.125	-2.3272807E-02
13.130	5.5427993E-03
13.135	3.5579278E-02
13.140	6.5865871E-02
13.145	9.5637560E-02
13.150	1.2413094E-01
13.155	1.5017832E-01
13.160	1.7225972E-01
13.165	1.8871838E-01
13.170	1.9809759E-01
13.175	1.9963581E-01
13.180	1.9372653E-01
13.185	1.8208153E-01
13.190	1.6736265E-01
13.195	1.5203582E-01
13.200	1.3832455E-01
13.205	1.2839510E-01
13.210	1.2416772E-01
13.215	1.2680951E-01
13.220	1.3625416E-01
13.225	1.5111844E-01
13.230	1.6876508E-01
13.235	1.8606566E-01
13.240	2.0117016E-01
13.245	2.1371013E-01
13.250	2.2447042E-01
13.255	2.3506938E-01
13.260	2.4720279E-01
13.265	2.6198678E-01
13.270	2.7989646E-01
13.275	3.0067502E-01
13.280	3.2323638E-01
13.285	3.4585455E-01
13.290	3.6680552E-01
13.295	3.8469238E-01
13.300	3.9844807E-01
13.305	4.0741367E-01
13.310	4.1133170E-01
13.315	4.0999890E-01
13.320	4.0306699E-01
13.325	3.9042161E-01
13.330	3.7250208E-01
13.335	3.5046427E-01
13.340	3.2612727E-01
13.345	3.0130743E-01
13.350	2.7688061E-01
13.355	2.5302299E-01
13.360	2.2943350E-01
13.365	2.0544714E-01
13.370	1.8024989E-01
13.375	1.5310114E-01
13.380	1.2345616E-01
13.385	9.1114041E-02
13.390	5.6365758E-02
13.395	2.0100851E-02
13.400	-1.6181708E-02
13.405	-5.0634933E-02
13.410	-8.1677580E-02
13.415	-1.0806184E-01
13.420	-1.2898080E-01
13.425	-1.4424023E-01
13.430	-1.5426975E-01
13.435	-1.5973126E-01
13.440	-1.6125576E-01
13.445	-1.5972559E-01
13.450	-1.5643956E-01
13.455	-1.5282209E-01
13.460	-1.4971873E-01
13.465	-1.4754317E-01
13.470	-1.4643713E-01
13.475	-1.4629403E-01
13.480	-1.4682973E-01
13.485	-1.4774152E-01
13.490	-1.4891382E-01
13.495	-1.5036272E-01
13.500	-1.5217161E-01
13.505	-1.5443493E-01
13.510	-1.5718494E-01
13.515	-1.6030513E-01
13.520	-1.6342984E-01
13.525	-1.6586360E-01
13.530	-1.6657704E-01
13.535	-1.6427259E-01
13.540	-1.5752393E-01
13.545	-1.4501910E-01
13.550	-1.2587358E-01
13.555	-9.9882926E-02
13.560	-6.7704194E-02
13.565	-3.0584319E-02
13.570	1.0608998E-02
13.575	5.5237785E-02
13.580	1.0246060E-01
13.585	1.5103511E-01
13.590	1.9941915E-01
13.595	2.4621456E-01
13.600	2.9016407E-01
13.605	3.2998233E-01
13.610	3.6420872E-01
13.615	3.9120074E-01
13.620	4.0948241E-01
13.625	4.1811403E-01
13.630	4.1692802E-01
13.635	4.0643356E-01
13.640	3.8775707E-01
13.645	3.6286737E-01
13.650	3.3396498E-01
13.655	3.0245888E-01
13.660	2.6941522E-01
13.665	2.3590836E-01
13.670	2.0290008E-01
13.675	1.7084851E-01
13.680	1.3973009E-01
13.685	1.0924761E-01
13.690	7.9013509E-02
13.695	4.8934496E-02
13.700	1.9476517E-02
13.705	-8.3905293E-03
13.710	-3.3301936E-02
13.715	-5.3602872E-02
13.720	-6.7499643E-02
13.725	-7.3306443E-02
13.730	-6.9880053E-02
13.735	-5.7030781E-02
13.740	-3.5828934E-02
13.745	-8.3696186E-03
13.750	2.3369257E-02
13.755	5.7852293E-02
13.760	9.3523169E-02
13.765	1.2861997E-01
13.770	1.6127070E-01
13.775	1.8999043E-01
13.780	2.1435017E-01
13.785	2.3491610E-01
13.790	2.5310796E-01
13.795	2.7077200E-01
13.800	2.8912370E-01
13.805	3.0828942E-01
13.810	3.2745679E-01
13.815	3.4497896E-01
13.820	3.5852973E-01
13.825	3.6544784E-01
13.830	3.6341859E-01
13.835	3.5130694E-01
13.840	3.2941970E-01
13.845	2.9936751E-01
13.850	2.6302287E-01
13.855	2.2175276E-01
13.860	1.7697273E-01
13.865	1.3037740E-01
13.870	8.3601525E-02
13.875	3.8175946E-02
13.880	-4.2943916E-03
13.885	-4.1988360E-02
13.890	-7.2785686E-02
13.895	-9.4489398E-02
13.900	-1.0525634E-01
13.905	-1.0408150E-01
13.910	-9.1287271E-02
13.915	-6.8856526E-02
13.920	-4.0012873E-02
13.925	-7.4890947E-03
13.930	2.6983590E-02
13.935	6.2040362E-02
13.940	9.6358804E-02
13.945	1.2855470E-01
13.950	1.5713617E-01
13.955	1.8055818E-01
13.960	1.9737027E-01
13.965	2.0646222E-01
13.970	2.0734503E-01
13.975	2.0042347E-01
13.980	1.8693879E-01
13.985	1.6832289E-01
13.990	1.4602761E-01
13.995	1.2161844E-01
14.000	9.6239760E-02
14.005	7.0466966E-02
14.010	4.4553699E-02
14.015	1.8597207E-02
14.020	-7.4022359E-03
14.025	-3.3511560E-02
14.030	-5.9881391E-02
14.035	-8.6675413E-02
14.040	-1.1402547E-01
14.045	-1.4196927E-01
14.050	-1.7039590E-01
14.055	-1.9896021E-01
14.060	-2.2711246E-01
14.065	-2.5413872E-01
14.070	-2.7925436E-01
14.075	-3.0177548E-01
14.080	-3.2142715E-01
14.085	-3.3842372E-01
14.090	-3.5346780E-01
14.095	-3.6752004E-01
14.100	-3.8116670E-01
14.105	-3.9411486E-01
14.110	-4.0537834E-01
14.115	-4.1346999E-01
14.120	-4.1668073E-01
14.125	-4.1351900E-01
14.130	-4.0297414E-01
14.135	-3.8465002E-01
14.140	-3.5872652E-01
14.145	-3.2624607E-01
14.150	-2.8937452E-01
14.155	-2.5101590E-01
14.160	-2.1349470E-01
14.165	-1.7812343E-01
14.170	-1.4574273E-01
14.175	-1.1700724E-01
14.180	-9.2301200E-02
14.185	-7.1770895E-02
14.190	-5.5557201E-02
14.195	-4.3735306E-02
14.200	-3.6276721E-02
14.205	-3.3332756E-02
14.210	-3.5402887E-02
14.215	-4.3063379E-02
14.220	-5.6872797E-02
14.225	-7.7242064E-02
14.230	-1.0402222E-01
14.235	-1.3620203E-01
14.240	-1.7191384E-01
14.245	-2.0918185E-01
14.250	-2.4702644E-01
14.255	-2.8508802E-01
14.260	-3.2328859E-01
14.265	-3.6162849E-01
14.270	-3.9983301E-01
14.275	-4.3708944E-01
14.280	-4.7210332E-01
14.285	-5.0323784E-01
14.290	-5.2884049E-01
14.295	-5.4766074E-01
14.300	-5.5901001E-01
14.305	-5.6263356E-01
14.310	-5.5816283E-01
14.315	-5.4543699E-01
14.320	-5.2502270E-01
14.325	-4.9847870E-01
14.330	-4.6788776E-01
14.335	-4.3453795E-01
14.340	-3.9938031E-01
14.345	-3.6348624E-01
14.350	-3.2814240E-01
14.355	-2.9489752E-01
14.360	-2.6533857E-01
14.365	-2.4064829E-01
14.370	-2.2147017E-01
14.375	-2.0779502E-01
14.380	-1.9882048E-01
14.385	-1.9316423E-01
14.390	-1.8963157E-01
14.395	-1.8745659E-01
14.400	-1.8601008E-01
14.405	-1.8467186E-01
14.410	-1.8286485E-01
14.415	-1.8025827E-01
14.420	-1.7676223E-01
14.425	-1.7247778E-01
14.430	-1.6766946E-01
14.435	-1.6274086E-01
14.440	-1.5816529E-01
14.445	-1.5432829E-01
14.450	-1.5131745E-01
14.455	-1.4891620E-01
14.460	-1.4660075E-01
14.465	-1.4354878E-01
14.470	-1.3868373E-01
14.475	-1.3078321E-01
14.480	-1.1863487E-01
14.485	-1.0126310E-01
14.490	-7.8180338E-02
14.495	-4.9679746E-02
14.500	-1.7041577E-02
14.505	1.7391592E-02
14.510	5.0735177E-02
14.515	8.0847940E-02
14.520	1.0643816E-01
14.525	1.2668242E-01
14.530	1.4112266E-01
14.535	1.4978482E-01
14.540	1.5305394E-01
14.545	1.5093725E-01
14.550	1.4259709E-01
14.555	1.2685713E-01
14.560	1.0272037E-01
14.565	6.9780720E-02
14.570	2.8590762E-02
14.575	-1.9438718E-02
14.580	-7.2767115E-02
14.585	-1.2931453E-01
14.590	-1.8642140E-01
14.595	-2.4173192E-01
14.600	-2.9391257E-01
14.605	-3.4239315E-01
14.610	-3.8704658E-01
14.615	-4.2761228E-01
14.620	-4.6331744E-01
14.625	-4.9321546E-01
14.630	-5.1651366E-01
14.635	-5.3277372E-01
14.640	-5.4193413E-01
14.645	-5.4441699E-01
14.650	-5.4149055E-01
14.655	-5.3543596E-01
14.660	-5.2892973E-01
14.665	-5.2355805E-01
14.670	-5.2004706E-01
14.675	-5.1850860E-01
14.680	-5.1842001E-01
14.685	-5.1874710E-01
14.690	-5.1825770E-01
14.695	-5.1583199E-01
14.700	-5.1047770E-01
14.705	-5.0140866E-01
14.710	-4.8809680E-01
14.715	-4.7022825E-01
14.720	-4.4780006E-01
14.725	-4.2136623E-01
14.730	-3.9214283E-01
14.735	-3.6188908E-01
14.740	-3.3225616E-01
14.745	-3.0428026E-01
14.750	-2.7855240E-01
14.755	-2.5542292E-01
14.760	-2.3527028E-01
14.765	-2.1868700E-01
14.770	-2.0627060E-01
14.775	-1.9843346E-01
14.780	-1.9523987E-01
14.785	-1.9633664E-01
14.790	-2.0119578E-01
14.795	-2.0950146E-01
14.800	-2.2082118E-01
14.805	-2.3435512E-01
14.810	-2.4894831E-01
14.815	-2.6346752E-01
14.820	-2.7710877E-01
14.825	-2.8925580E-01
14.830	-2.9938967E-01
14.835	-3.0700325E-01
14.840	-3.1140715E-01
14.845	-3.1192134E-01
14.850	-3.0809009E-01
14.855	-2.9989343E-01
14.860	-2.8790822E-01
14.865	-2.7339426E-01
14.870	-2.5790807E-01
14.875	-2.4238995E-01
14.880	-2.2734562E-01
14.885	-2.1305842E-01
14.890	-1.9957694E-01
14.895	-1.8677057E-01
14.900	-1.7439497E-01
14.905	-1.6227100E-01
14.910	-1.5029326E-01
14.915	-1.3841855E-01
14.920	-1.2664507E-01
14.925	-1.1501239E-01
14.930	-1.0356525E-01
14.935	-9.2347176E-02
14.940	-8.1383525E-02
14.945	-7.0720325E-02
14.950	-6.0427451E-02
14.955	-5.0568498E-02
14.960	-4.1156610E-02
14.965	-3.2149538E-02
14.970	-2.3416809E-02
14.975	-1.4765475E-02
14.980	-5.9769555E-03
14.985	3.1352631E-03
14.990	1.2718496E-02
14.995	2.2843287E-02
15.000	3.3475896E-02
15.005	4.4433653E-02
15.010	5.5377970E-02
15.015	6.5801447E-02
15.020	7.5061780E-02
15.025	8.2434727E-02
15.030	8.7222442E-02
15.035	8.8879867E-02
15.040	8.7180243E-02
15.045	8.2362890E-02
15.050	7.5272357E-02
15.055	6.7372323E-02
15.060	6.0425062E-02
15.065	5.5731121E-02
15.070	5.4161739E-02
15.075	5.6162439E-02
15.080	6.1646875E-02
15.085	6.9939452E-02
15.090	7.9966347E-02
15.095	9.0842620E-02
15.100	1.0207999E-01
15.105	1.1340406E-01
15.110	1.2465572E-01
15.115	1.3572421E-01
15.120	1.4648869E-01
15.125	1.5674998E-01
15.130	1.6617935E-01
15.135	1.7423077E-01
15.140	1.7999777E-01
15.145	1.8217423E-01
15.150	1.7927537E-01
15.155	1.6993089E-01
15.160	1.5321830E-01
15.165	1.2904057E-01
15.170	9.8431078E-02
15.175	6.3706744E-02
15.180	2.7860807E-02
15.185	-6.9526187E-03
15.190	-3.9154342E-02
15.195	-6.7499692E-02
15.200	-9.1152792E-02
15.205	-1.0973175E-01
15.210	-1.2318006E-01
15.215	-1.3132573E-01
15.220	-1.3402352E-01
15.225	-1.3143738E-01
15.230	-1.2417453E-01
15.235	-1.1294701E-01
15.240	-9.7656716E-02
15.245	-7.7855364E-02
15.250	-5.3231535E-02
15.255	-2.3932238E-02
15.260	9.1930192E-03
15.265	4.4470056E-02
15.270	7.9925823E-02
15.275	1.1439139E-01
15.280	1.4675904E-01
15.285	1.7583967E-01
15.290	2.0055302E-01
15.295	2.1995035E-01
15.300	2.3330942E-01
15.305	2.4041193E-01
15.310	2.4182913E-01
15.315	2.3905072E-01
15.320	2.3426743E-01
15.325	2.2938457E-01
15.330	2.2524338E-01
15.335	2.2187525E-01
15.340	2.1869890E-01
15.345	2.1462028E-01
15.350	2.0828598E-01
15.355	1.9858042E-01
15.360	1.8507850E-01
15.365	1.6814563E-01
15.370	1.4898197E-01
15.375	1.2947734E-01
15.380	1.1149878E-01
15.385	9.5928603E-02
15.390	8.2753848E-02
15.395	7.1204121E-02
15.400	5.9953803E-02
15.405	4.7791383E-02
15.410	3.4171041E-02
15.415	1.9177667E-02
15.420	3.4979081E-03
15.425	-1.1594200E-02
15.430	-2.4486295E-02
15.435	-3.3794278E-02
15.440	-3.8724026E-02
15.445	-3.9160319E-02
15.450	-3.5756457E-02
15.455	-2.9686331E-02
15.460	-2.1884323E-02
15.465	-1.3067460E-02
15.470	-3.9740262E-03
15.475	4.5713831E-03
15.480	1.1668804E-02
15.485	1.6455789E-02
15.490	1.8224557E-02
15.495	1.6482528E-02
15.500	1.0932330E-02
15.505	1.3376860E-03
15.510	-1.2316857E-02
15.515	-2.9567795E-02
15.520	-4.9325840E-02
15.525	-6.9835464E-02
15.530	-8.9101289E-02
15.535	-1.0584417E-01
15.540	-1.1941957E-01
15.545	-1.2971001E-01
15.550	-1.3714896E-01
15.555	-1.4247238E-01
15.560	-1.4613484E-01
15.565	-1.4829496E-01
15.570	-1.4897794E-01
15.575	-1.4813511E-01
15.580	-1.4560423E-01
15.585	-1.4091273E-01
15.590	-1.3330769E-01
15.595	-1.2201145E-01
15.600	-1.0647084E-01
15.605	-8.6605793E-02
15.610	-6.3008750E-02
15.615	-3.7060690E-02
15.620	-1.0732073E-02
15.625	1.4208331E-02
15.630	3.6766954E-02
15.635	5.6312944E-02
15.640	7.2446623E-02
15.645	8.5146310E-02
15.650	9.4850965E-02
15.655	1.0233844E-01
15.660	1.0823384E-01
15.665	1.1264078E-01
15.670	1.1536279E-01
15.675	1.1609586E-01
15.680	1.1457422E-01
15.685	1.1071579E-01
15.690	1.0475988E-01
15.695	9.7261489E-02
15.700	8.8866977E-02
15.705	8.0261159E-02
15.710	7.2276661E-02
15.715	6.5906346E-02
15.720	6.2234905E-02
15.725	6.2303064E-02
15.730	6.6925702E-02
15.735	7.6467439E-02
15.740	9.0608637E-02
15.745	1.0815872E-01
15.750	1.2700713E-01
15.755	1.4448439E-01
15.760	1.5838778E-01
15.765	1.6748670E-01
15.770	1.7150424E-01
15.775	1.7114637E-01
15.780	1.6801805E-01
15.785	1.6397301E-01
15.790	1.6021392E-01
15.795	1.5744388E-01
15.800	1.5599014E-01
15.805	1.5577562E-01
15.810	1.5636706E-01
15.815	1.5712525E-01
15.820	1.5735932E-01
15.825	1.5635598E-01
15.830	1.5344884E-01
15.835	1.4812362E-01
15.840	1.4012679E-01
15.845	1.2955829E-01
15.850	1.1684616E-01
15.855	1.0252571E-01
15.860	8.7194364E-02
15.865	7.1628863E-02
15.870	5.6824670E-02
15.875	4.3950349E-02
15.880	3.4183044E-02
15.885	2.8352115E-02
15.890	2.6625496E-02
15.895	2.8470297E-02
15.900	3.2854025E-02
15.905	3.8856690E-02
15.910	4.5857037E-02
15.915	5.3300244E-02
15.920	6.0570362E-02
15.925	6.6939314E-02
15.930	7.1555761E-02
15.935	7.3487423E-02
15.940	7.1831468E-02
15.945	6.5845633E-02
15.950	5.5115333E-02
15.955	3.9712635E-02
15.960	2.0304647E-02
15.965	-2.1461018E-03
15.970	-2.7186548E-02
15.975	-5.4548403E-02
15.980	-8.3821141E-02
15.985	-1.1432793E-01
15.990	-1.4513339E-01
15.995	-1.7527228E-01
16.000	-2.0373413E-01
16.005	-2.2942356E-01
16.010	-2.5122107E-01
16.015	-2.6810844E-01
16.020	-2.7928243E-01
16.025	-2.8423796E-01
16.030	-2.8301336E-01
16.035	-2.7637233E-01
16.040	-2.6547206E-01
16.045	-2.5087970E-01
16.050	-2.3267142E-01
16.055	-2.1088599E-01
16.060	-1.8576255E-01
16.065	-1.5791283E-01
16.070	-1.2822803E-01
16.075	-9.7428725E-02
16.080	-6.5930885E-02
16.085	-3.4073786E-02
16.090	-2.2081707E-03
16.095	2.9254873E-02
16.100	5.9889773E-02
16.105	8.9349723E-02
16.110	1.1740140E-01
16.115	1.4393884E-01
16.120	1.6902303E-01
16.125	1.9278969E-01
16.130	2.1523045E-01
16.135	2.3622255E-01
16.140	2.5566569E-01
16.145	2.7354786E-01
16.150	2.8997023E-01
16.155	3.0503089E-01
16.160	3.1876524E-01
16.165	3.3124839E-01
16.170	3.4269413E-01
16.175	3.5347100E-01
16.180	3.6406652E-01
16.185	3.7485612E-01
16.190	3.8581082E-01
16.195	3.9655092E-01
16.200	4.0643036E-01
16.205	4.1463219E-01
16.210	4.2037390E-01
16.215	4.2306233E-01
16.220	4.2240545E-01
16.225	4.1851681E-01
16.230	4.1197306E-01
16.235	4.0363192E-01
16.240	3.9405591E-01
16.245	3.8331303E-01
16.250	3.7113997E-01
16.255	3.5705966E-01
16.260	3.4046669E-01
16.265	3.2072783E-01
16.270	2.9724310E-01
16.275	2.6933780E-01
16.280	2.3610359E-01
16.285	1.9674935E-01
16.290	1.5092157E-01
16.295	9.8790674E-02
16.300	4.0852727E-02
16.305	-2.1698155E-02
16.310	-8.6738630E-02
16.315	-1.5141753E-01
16.320	-2.1308059E-01
16.325	-2.7003483E-01
16.330	-3.2143766E-01
16.335	-3.6705954E-01
16.340	-4.0687575E-01
16.345	-4.4101437E-01
16.350	-4.7003540E-01
16.355	-4.9503651E-01
16.360	-5.1725494E-01
16.365	-5.3709428E-01
16.370	-5.5439618E-01
16.375	-5.6871081E-01
16.380	-5.7920214E-01
16.385	-5.8435536E-01
16.390	-5.8237562E-01
16.395	-5.7168445E-01
16.400	-5.5136318E-01
16.405	-5.2159102E-01
16.410	-4.8391457E-01
16.415	-4.4091840E-01
16.420	-3.9483635E-01
16.425	-3.4709910E-01
16.430	-2.9874010E-01
16.435	-2.5057929E-01
16.440	-2.0330680E-01
16.445	-1.5755094E-01
16.450	-1.1383163E-01
16.455	-7.2474036E-02
16.460	-3.3562864E-02
16.465	3.0368807E-03
16.470	3.7667536E-02
16.475	7.0563178E-02
16.480	1.0122985E-01
16.485	1.2865552E-01
16.490	1.5163140E-01
16.495	1.6898436E-01
16.500	1.7991624E-01
16.505	1.8437597E-01
16.510	1.8313512E-01
16.515	1.7704481E-01
16.520	1.6651957E-01
16.525	1.5196292E-01
16.530	1.3406621E-01
16.535	1.1372417E-01
16.540	9.1568626E-02
16.545	6.7866004E-02
16.550	4.2791843E-02
16.555	1.6608847E-02
16.560	-1.0238105E-02
16.565	-3.7096288E-02
16.570	-6.3096506E-02
16.575	-8.7176795E-02
16.580	-1.0819394E-01
16.585	-1.2521079E-01
16.590	-1.3795239E-01
16.595	-1.4694368E-01
16.600	-1.5355023E-01
16.605	-1.5977723E-01
16.610	-1.6747275E-01
16.615	-1.7766220E-01
16.620	-1.9063310E-01
16.625	-2.0599146E-01
16.630	-2.2267063E-01
16.635	-2.3930687E-01
16.640	-2.5502195E-01
16.645	-2.6935751E-01
16.650	-2.8216446E-01
16.655	-2.9360486E-01
16.660	-3.0394308E-01
16.665	-3.1311261E-01
16.670	-3.2068727E-01
16.675	-3.2602161E-01
16.680	-3.2834987E-01
16.685	-3.2693800E-01
16.690	-3.2125507E-01
16.695	-3.1119575E-01
16.700	-2.9723768E-01
16.705	-2.8052600E-01
16.710	-2.6257485E-01
16.715	-2.4440106E-01
16.720	-2.2617653E-01
16.725	-2.0746063E-01
16.730	-1.8731874E-01
16.735	-1.6447554E-01
16.740	-1.3757235E-01
16.745	-1.0560395E-01
16.750	-6.8140290E-02
16.755	-2.5566725E-02
16.760	2.0772006E-02
16.765	6.8666679E-02
16.770	1.1591573E-01
16.775	1.6146947E-01
16.780	2.0516669E-01
16.785	2.4734794E-01
16.790	2.8832093E-01
16.795	3.2763117E-01
16.800	3.6423918E-01
16.805	3.9670075E-01
16.810	4.2338679E-01
16.815	4.4276769E-01
16.820	4.5379965E-01
16.825	4.5625270E-01
16.830	4.5099028E-01
16.835	4.3963223E-01
16.840	4.2348095E-01
16.845	4.0394570E-01
16.850	3.8282790E-01
16.855	3.6189031E-01
16.860	3.4224069E-01
16.865	3.2447272E-01
16.870	3.0878596E-01
16.875	2.9497329E-01
16.880	2.8250517E-01
16.885	2.7078029E-01
16.890	2.5932133E-01
16.895	2.4768578E-01
16.900	2.3540927E-01
16.905	2.2199856E-01
16.910	2.0694184E-01
16.915	1.8975061E-01
16.920	1.7002358E-01
16.925	1.4754309E-01
16.930	1.2235718E-01
16.935	9.4816893E-02
16.940	6.5376451E-02
16.945	3.4312589E-02
16.950	1.9431198E-03
16.955	-3.1163375E-02
16.960	-6.4090756E-02
16.965	-9.5515889E-02
16.970	-1.2377725E-01
16.975	-1.4706002E-01
16.980	-1.6357179E-01
16.985	-1.7178445E-01
16.990	-1.7069146E-01
16.995	-1.5991352E-01
17.000	-1.3987073E-01
17.005	-1.1214564E-01
17.010	-7.9339830E-02
17.015	-4.3884875E-02
17.020	-7.1202413E-03
17.025	3.0204206E-02
17.030	6.7574706E-02
17.035	1.0456810E-01
17.040	1.4072875E-01
17.045	1.7545134E-01
17.050	2.0788976E-01
17.055	2.3699125E-01
17.060	2.6161207E-01
17.065	2.8066622E-01
17.070	2.9328057E-01
17.075	2.9875808E-01
17.080	2.9649197E-01
17.085	2.8643979E-01
17.090	2.6950594E-01
17.095	2.4758488E-01
17.100	2.2282087E-01
17.105	1.9651545E-01
17.110	1.6952482E-01
17.115	1.4259224E-01
17.120	1.1640143E-01
17.125	9.1590711E-02
17.130	6.8640531E-02
17.135	4.7814601E-02
17.140	2.9121051E-02
17.145	1.2286053E-02
17.150	-3.1823422E-03
17.155	-1.7714440E-02
17.160	-3.1618173E-02
17.165	-4.5201571E-02
17.170	-5.8855713E-02
17.175	-7.3070727E-02
17.180	-8.8423886E-02
17.185	-1.0548581E-01
17.190	-1.2464020E-01
17.195	-1.4594084E-01
17.200	-1.6903773E-01
17.205	-1.9311325E-01
17.210	-2.1689920E-01
17.215	-2.3892264E-01
17.220	-2.5808951E-01
17.225	-2.7383316E-01
17.230	-2.8612108E-01
17.235	-2.9548666E-01
17.240	-3.0279360E-01
17.245	-3.0861191E-01
17.250	-3.1321326E-01
17.255	-3.1675101E-01
17.260	-3.1932573E-01
17.265	-3.2101156E-01
17.270	-3.2177944E-01
17.275	-3.2139948E-01
17.280	-3.1955315E-01
17.285	-3.1596392E-01
17.290	-3.1047286E-01
17.295	-3.0310927E-01
17.300	-2.9398555E-01
17.305	-2.8300803E-01
17.310	-2.7003442E-01
17.315	-2.5505380E-01
17.320	-2.3828703E-01
17.325	-2.2027915E-01
17.330	-2.0191842E-01
17.335	-1.8430265E-01
17.340	-1.6836238E-01
17.345	-1.5476760E-01
17.350	-1.4388769E-01
17.355	-1.3569826E-01
17.360	-1.2969769E-01
17.365	-1.2489405E-01
17.370	-1.2005355E-01
17.375	-1.1430141E-01
17.380	-1.0706647E-01
17.385	-9.8038314E-02
17.390	-8.7221293E-02
17.395	-7.4967292E-02
17.400	-6.1942737E-02
17.405	-4.8917764E-02
17.410	-3.6456191E-02
17.415	-2.4953696E-02
17.420	-1.4652768E-02
17.425	-5.6141528E-03
17.430	2.3004382E-03
17.435	9.4113301E-03
17.440	1.6076546E-02
17.445	2.2375131E-02
17.450	2.8176537E-02
17.455	3.3206832E-02
17.460	3.7100508E-02
17.465	3.9473627E-02
17.470	4.0021765E-02
17.475	3.8624217E-02
17.480	3.5446539E-02
17.485	3.0998314E-02
17.490	2.6064708E-02
17.495	2.1401324E-02
17.500	1.7605165E-02
17.505	1.5142664E-02
17.510	1.4327121E-02
17.515	1.5250231E-02
17.520	1.7733052E-02
17.525	2.1295727E-02
17.530	2.5305074E-02
17.535	2.9298829E-02
17.540	3.2936100E-02
17.545	3.5943348E-02
17.550	3.8139551E-02
17.555	3.9451214E-02
17.560	3.9941447E-02
17.565	3.9815054E-02
17.570	3.9392603E-02
17.575	3.8994322E-02
17.580	3.8897124E-02
17.585	3.9343483E-02
17.590	4.0538622E-02
17.595	4.2621544E-02
17.600	4.5641394E-02
17.605	4.9524151E-02
17.610	5.4086101E-02
17.615	5.9100321E-02
17.620	6.4411429E-02
17.625	6.9885668E-02
17.630	7.5377740E-02
17.635	8.0716860E-02
17.640	8.5708527E-02
17.645	9.0141655E-02
17.650	9.3828005E-02
17.655	9.6654527E-02
17.660	9.8617280E-02
17.665	9.9846884E-02
17.670	1.0063348E-01
17.675	1.0141605E-01
17.680	1.0269327E-01
17.685	1.0481037E-01
17.690	1.0790815E-01
17.695	1.1190656E-01
17.700	1.1647959E-01
17.705	1.2104539E-01
17.710	1.2480374E-01
17.715	1.2687355E-01
17.720	1.2656453E-01
17.725	1.2351429E-01
17.730	1.1779441E-01
17.735	1.1001343E-01
17.740	1.0135940E-01
17.745	9.3456176E-02
17.750	8.7863065E-02
17.755	8.5624539E-02
17.760	8.7235988E-02
17.765	9.2588877E-02
17.770	1.0092682E-01
17.775	1.1115880E-01
17.780	1.2261817E-01
17.785	1.3488474E-01
17.790	1.4760113E-01
17.795	1.6043945E-01
17.800	1.7307078E-01
17.805	1.8517948E-01
17.810	1.9654919E-01
17.815	2.0712919E-01
17.820	2.1700732E-01
17.825	2.2638555E-01
17.830	2.3556280E-01
17.835	2.4488816E-01
17.840	2.5466752E-01
17.845	2.6493554E-01
17.850	2.7519445E-01
17.855	2.8445208E-01
17.860	2.9131510E-01
17.865	2.9411691E-01
17.870	2.9114130E-01
17.875	2.8093822E-01
17.880	2.6275104E-01
17.885	2.3694774E-01
17.890	2.0521184E-01
17.895	1.7019451E-01
17.900	1.3426867E-01
17.905	9.9076791E-02
17.910	6.5847858E-02
17.915	3.5525856E-02
17.920	8.7992043E-03
17.925	-1.3728993E-02
17.930	-3.1351350E-02
17.935	-4.3506602E-02
17.940	-5.0063126E-02
17.945	-5.1535975E-02
17.950	-4.9236294E-02
17.955	-4.5107444E-02
17.960	-4.0930976E-02
17.965	-3.7684104E-02
17.970	-3.5773681E-02
17.975	-3.5191505E-02
17.980	-3.5582767E-02
17.985	-3.6449713E-02
17.990	-3.7405393E-02
17.995	-3.8159649E-02
18.000	-3.8507546E-02
18.005	-3.8353059E-02
18.010	-3.7722445E-02
18.015	-3.6769647E-02
18.020	-3.5767253E-02
18.025	-3.5084809E-02
18.030	-3.5150316E-02
18.035	-3.6396390E-02
18.040	-3.9190491E-02
18.045	-4.3754501E-02
18.050	-5.0080704E-02
18.055	-5.7859830E-02
18.060	-6.6445140E-02
18.065	-7.4921324E-02
18.070	-8.2373316E-02
18.075	-8.8128164E-02
18.080	-9.1755567E-02
18.085	-9.3103477E-02
18.090	-9.2343892E-02
18.095	-8.9979508E-02
18.100	-8.6642163E-02
18.105	-8.2612062E-02
18.110	-7.7791605E-02
18.115	-7.1834670E-02
18.120	-6.4226943E-02
18.125	-5.4382989E-02
18.130	-4.1751289E-02
18.135	-2.5856093E-02
18.140	-6.2326528E-03
18.145	1.7305666E-02
18.150	4.4400871E-02
18.155	7.3977787E-02
18.160	1.0418157E-01
18.165	1.3268628E-01
18.170	1.5751243E-01
18.175	1.7722018E-01
18.180	1.9093104E-01
18.185	1.9844306E-01
18.190	2.0005936E-01
18.195	1.9595996E-01
18.200	1.8637682E-01
18.205	1.7196605E-01
18.210	1.5396303E-01
18.215	1.3386096E-01
18.220	1.1252354E-01
18.225	9.0469642E-02
18.230	6.8147876E-02
18.235	4.6003240E-02
18.240	2.4488224E-02
18.245	3.9441321E-03
18.250	-1.5506538E-02
18.255	-3.3944898E-02
18.260	-5.1646292E-02
18.265	-6.9067817E-02
18.270	-8.6709566E-02
18.275	-1.0481891E-01
18.280	-1.2342053E-01
18.285	-1.4235062E-01
18.290	-1.6125502E-01
18.295	-1.7960837E-01
18.300	-1.9677259E-01
18.305	-2.1212134E-01
18.310	-2.2514133E-01
18.315	-2.3550221E-01
18.320	-2.4311834E-01
18.325	-2.4811918E-01
18.330	-2.5059580E-01
18.335	-2.5043669E-01
18.340	-2.4752092E-01
18.345	-2.4188586E-01
18.350	-2.3380710E-01
18.355	-2.2374819E-01
18.360	-2.1199983E-01
18.365	-1.9843658E-01
18.370	-1.8273308E-01
18.375	-1.6456831E-01
18.380	-1.4375945E-01
18.385	-1.2035854E-01
18.390	-9.4659180E-02
18.395	-6.7324204E-02
18.400	-3.9426042E-02
18.405	-1.2213863E-02
18.410	1.3509590E-02
18.415	3.7466844E-02
18.420	5.9831581E-02
18.425	8.1181634E-02
18.430	1.0229099E-01
18.435	1.2360878E-01
18.440	1.4504070E-01
18.445	1.6602131E-01
18.450	1.8559638E-01
18.455	2.0252193E-01
18.460	2.1553027E-01
18.465	2.2376526E-01
18.470	2.2701936E-01
18.475	2.2583450E-01
18.480	2.2139111E-01
18.485	2.1483752E-01
18.490	2.0678676E-01
18.495	1.9759063E-01
18.500	1.8754337E-01
18.505	1.7695302E-01
18.510	1.6618551E-01
18.515	1.5560970E-01
18.520	1.4550242E-01
18.525	1.3609563E-01
18.530	1.2760654E-01
18.535	1.2023072E-01
18.540	1.1415256E-01
18.545	1.0961205E-01
18.550	1.0691935E-01
18.555	1.0632060E-01
18.560	1.0786095E-01
18.565	1.1128113E-01
18.570	1.1595579E-01
18.575	1.2103447E-01
18.580	1.2583023E-01
18.585	1.2974835E-01
18.590	1.3223654E-01
18.595	1.3283365E-01
18.600	1.3122466E-01
18.605	1.2728487E-01
18.610	1.2104465E-01
18.615	1.1268733E-01
18.620	1.0266052E-01
18.625	9.1731840E-02
18.630	8.0915098E-02
18.635	7.1125125E-02
18.640	6.2707634E-02
18.645	5.5482573E-02
18.650	4.8799147E-02
18.655	4.1602377E-02
18.660	3.2683341E-02
18.665	2.1033469E-02
18.670	5.9420944E-03
18.675	-1.2872202E-02
18.680	-3.5104192E-02
18.685	-5.9766410E-02
18.690	-8.5358619E-02
18.695	-1.1045989E-01
18.700	-1.3397606E-01
18.705	-1.5503787E-01
18.710	-1.7299788E-01
18.715	-1.8745831E-01
18.720	-1.9817386E-01
18.725	-2.0464921E-01
18.730	-2.0590665E-01
18.735	-2.0086722E-01
18.740	-1.8875540E-01
18.745	-1.6956752E-01
18.750	-1.4457265E-01
18.755	-1.1620135E-01
18.760	-8.7012842E-02
18.765	-5.8326106E-02
18.770	-3.0587414E-02
18.775	-3.7867170E-03
18.780	2.2235167E-02
18.785	4.7508296E-02
18.790	7.1967720E-02
18.795	9.5449388E-02
18.800	1.1768112E-01
18.805	1.3825640E-01
18.810	1.5657207E-01
18.815	1.7175662E-01
18.820	1.8287371E-01
18.825	1.8915457E-01
18.830	1.9022466E-01
18.835	1.8628183E-01
18.840	1.7803805E-01
18.845	1.6613075E-01
18.850	1.5071057E-01
18.855	1.3183417E-01
18.860	1.0978659E-01
18.865	8.5267242E-02
18.870	5.9503963E-02
18.875	3.4203774E-02
18.880	1.1124722E-02
18.885	-8.5469617E-03
18.890	-2.4223051E-02
18.895	-3.5972477E-02
18.900	-4.4635913E-02
18.905	-5.1835737E-02
18.910	-5.9562114E-02
18.915	-6.9230547E-02
18.920	-8.1734525E-02
18.925	-9.7483486E-02
18.930	-1.1629363E-01
18.935	-1.3733984E-01
18.940	-1.5927486E-01
18.945	-1.8072188E-01
18.950	-2.0069062E-01
18.955	-2.1852091E-01
18.960	-2.3386712E-01
18.965	-2.4672538E-01
18.970	-2.5730916E-01
18.975	-2.6567214E-01
18.980	-2.7160884E-01
18.985	-2.7483781E-01
18.990	-2.7514544E-01
18.995	-2.7248599E-01
19.000	-2.6707128E-01
19.005	-2.5949144E-01
19.010	-2.5075244E-01
19.015	-2.4199792E-01
19.020	-2.3380710E-01
19.025	-2.2612981E-01
19.030	-2.1842461E-01
19.035	-2.0973799E-01
19.040	-1.9887565E-01
19.045	-1.8471874E-01
19.050	-1.6637688E-01
19.055	-1.4339107E-01
19.060	-1.1596483E-01
19.065	-8.5140809E-02
19.070	-5.2848599E-02
19.075	-2.1495517E-02
19.080	7.0799600E-03
19.085	3.1767865E-02
19.090	5.2085418E-02
19.095	6.8055793E-02
19.100	7.9747503E-02
19.105	8.6973763E-02
19.110	8.9625659E-02
19.115	8.7956658E-02
19.120	8.2742764E-02
19.125	7.5297192E-02
19.130	6.7064934E-02
19.135	5.9012187E-02
19.140	5.1818882E-02
19.145	4.6020645E-02
19.150	4.1999821E-02
19.155	3.9959459E-02
19.160	3.9871884E-02
19.165	4.1439730E-02
19.170	4.4116568E-02
19.175	4.7306290E-02
19.180	5.0644489E-02
19.185	5.3902839E-02
19.190	5.6909577E-02
19.195	5.9528026E-02
19.200	6.1645044E-02
19.205	6.3161784E-02
19.210	6.4014297E-02
19.215	6.4184506E-02
19.220	6.3726284E-02
19.225	6.2782886E-02
19.230	6.1577706E-02
19.235	6.0331099E-02
19.240	5.9197329E-02
19.245	5.8288225E-02
19.250	5.7691378E-02
19.255	5.7459578E-02
19.260	5.7602932E-02
19.265	5.8074709E-02
19.270	5.8774927E-02
19.275	5.9569930E-02
19.280	6.0304696E-02
19.285	6.0795914E-02
19.290	6.0853933E-02
19.295	6.0304039E-02
19.300	5.9028500E-02
19.305	5.7008844E-02
19.310	5.4377587E-02
19.315	5.1454007E-02
19.320	4.8771430E-02
19.325	4.7065460E-02
19.330	4.7235504E-02
19.335	5.0244172E-02
19.340	5.6974526E-02
19.345	6.8012519E-02
19.350	8.3391104E-02
19.355	1.0239501E-01
19.360	1.2349253E-01
19.365	1.4447938E-01
19.370	1.6326104E-01
19.375	1.7888680E-01
19.380	1.9142635E-01
19.385	2.0178493E-01
19.390	2.1131766E-01
19.395	2.2089794E-01
19.400	2.3081244E-01
19.405	2.4090214E-01
19.410	2.5063020E-01
19.415	2.5926772E-01
19.420	2.6628345E-01
19.425	2.7146106E-01
19.430	2.7491548E-01
19.435	2.7707158E-01
19.440	2.7840290E-01
19.445	2.7906315E-01
19.450	2.7900642E-01
19.455	2.7809511E-01
19.460	2.7614328E-01
19.465	2.7297259E-01
19.470	2.6846328E-01
19.475	2.6258963E-01
19.480	2.5537013E-01
19.485	2.4679098E-01
19.490	2.3691014E-01
19.495	2.2595642E-01
19.500	2.1437842E-01
19.505	2.0286059E-01
19.510	1.9226573E-01
19.515	1.8340834E-01
19.520	1.7655443E-01
19.525	1.7121320E-01
19.530	1.6623994E-01
19.535	1.6018100E-01
19.540	1.5196374E-01
19.545	1.4107020E-01
19.550	1.2754480E-01
19.555	1.1207126E-01
19.560	9.5973922E-02
19.565	8.1001335E-02
19.570	6.8664807E-02
19.575	5.9672727E-02
19.580	5.3944233E-02
19.585	5.0648874E-02
19.590	4.8498605E-02
19.595	4.6512987E-02
19.600	4.4096388E-02
19.605	4.0924350E-02
19.610	3.6936654E-02
19.615	3.2326413E-02
19.620	2.7442937E-02
19.625	2.2647167E-02
19.630	1.8311180E-02
19.635	1.4802674E-02
19.640	1.2433873E-02
19.645	1.1408836E-02
19.650	1.1769524E-02
19.655	1.3365276E-02
19.660	1.5887668E-02
19.665	1.9049312E-02
19.670	2.2717945E-02
19.675	2.6840540E-02
19.680	3.1380684E-02
19.685	3.6281352E-02
19.690	4.1429533E-02
19.695	4.6630201E-02
19.700	5.1614832E-02
19.705	5.6095421E-02
19.710	5.9766296E-02
19.715	6.2322554E-02
19.720	6.3507390E-02
19.725	6.3166611E-02
19.730	6.1279858E-02
19.735	5.7915608E-02
19.740	5.3219672E-02
19.745	4.7519281E-02
19.750	4.1391045E-02
19.755	3.5604753E-02
19.760	3.0928291E-02
19.765	2.8076622E-02
19.770	2.7686551E-02
19.775	3.0225946E-02
19.780	3.5899261E-02
19.785	4.4568140E-02
19.790	5.5903891E-02
19.795	6.9819430E-02
19.800	8.6229777E-02
19.805	1.0479666E-01
19.810	1.2479356E-01
19.815	1.4501705E-01
19.820	1.6380602E-01
19.825	1.7935928E-01
19.830	1.9040922E-01
19.835	1.9630142E-01
19.840	1.9705985E-01
19.845	1.9348475E-01
19.850	1.8687377E-01
19.855	1.7815504E-01
19.860	1.6760460E-01
19.865	1.5516422E-01
19.870	1.4064074E-01
19.875	1.2381658E-01
19.880	1.0451047E-01
19.885	8.2770350E-02
19.890	5.9030856E-02
19.895	3.4196968E-02
19.900	9.5304154E-03
19.905	-1.3818473E-02
19.910	-3.5228680E-02
19.915	-5.4568756E-02
19.920	-7.2189610E-02
19.925	-8.8912953E-02
19.930	-1.0582233E-01
19.935	-1.2369605E-01
19.940	-1.4274725E-01
19.945	-1.6266672E-01
19.950	-1.8264942E-01
19.955	-2.0145275E-01
19.960	-2.1766921E-01
19.965	-2.3031697E-01
19.970	-2.3913889E-01
19.975	-2.4455582E-01
19.980	-2.4730459E-01
19.985	-2.4758898E-01
19.990	-2.4510186E-01
19.995	-2.3933306E-01
20.000	-2.2976329E-01
20.005	-2.1606334E-01
20.010	-1.9826286E-01
20.015	-1.7680795E-01
20.020	-1.5230962E-01
20.025	-1.2537491E-01
20.030	-9.6823159E-02
20.035	-6.7713865E-02
20.040	-3.9036464E-02
20.045	-1.1601589E-02
20.050	1.3910047E-02
20.055	3.6951218E-02
20.060	5.7174102E-02
20.065	7.4437520E-02
20.070	8.8744074E-02
20.075	1.0032511E-01
20.080	1.0974743E-01
20.085	1.1782036E-01
20.090	1.2517877E-01
20.095	1.3195190E-01
20.100	1.3794426E-01
20.105	1.4278247E-01
20.110	1.4602105E-01
20.115	1.4726444E-01
20.120	1.4632137E-01
20.125	1.4335667E-01
20.130	1.3897387E-01
20.135	1.3421834E-01
20.140	1.3044775E-01
20.145	1.2885117E-01
20.150	1.2982224E-01
20.155	1.3294957E-01
20.160	1.3705266E-01
20.165	1.4023968E-01
20.170	1.4026185E-01
20.175	1.3536207E-01
20.180	1.2503206E-01
20.185	1.1007837E-01
20.190	9.2605871E-02
20.195	7.5608103E-02
20.200	6.1771699E-02
20.205	5.2886028E-02
20.210	4.9848526E-02
20.215	5.2561415E-02
20.220	5.9834980E-02
20.225	6.9791049E-02
20.230	8.0957395E-02
20.235	9.2327965E-02
20.240	1.0312159E-01
20.245	1.1273987E-01
20.250	1.2075977E-01
20.255	1.2694949E-01
20.260	1.3126620E-01
20.265	1.3384191E-01
20.270	1.3481684E-01
20.275	1.3400800E-01
20.280	1.3104191E-01
20.285	1.2553976E-01
20.290	1.1725428E-01
20.295	1.0623809E-01
20.300	9.2970065E-02
20.305	7.8425939E-02
20.310	6.3859096E-02
20.315	5.0211669E-02
20.320	3.8034940E-02
20.325	2.7566464E-02
20.330	1.8696621E-02
20.335	1.0964743E-02
20.340	3.6560236E-03
20.345	-3.8907945E-03
20.350	-1.2144694E-02
20.355	-2.1392933E-02
20.360	-3.1716471E-02
20.365	-4.2935460E-02
20.370	-5.4579765E-02
20.375	-6.5877898E-02
20.380	-7.5804313E-02
20.385	-8.3209992E-02
20.390	-8.7089687E-02
20.395	-8.6794293E-02
20.400	-8.2193108E-02
20.405	-7.3803071E-02
20.410	-6.2846480E-02
20.415	-5.0858646E-02
20.420	-3.8770806E-02
20.425	-2.7086863E-02
20.430	-1.6080298E-02
20.435	-5.8496282E-03
20.440	3.5295566E-03
20.445	1.1908009E-02
20.450	1.9093014E-02
20.455	2.4892409E-02
20.460	2.9152782E-02
20.465	3.1812486E-02
20.470	3.2941708E-02
20.475	3.2699826E-02
20.480	3.1128368E-02
20.485	2.8133837E-02
20.490	2.3630129E-02
20.495	1.7660197E-02
20.500	1.0466301E-02
20.505	2.5063438E-03
20.510	-5.6992958E-03
20.515	-1.3792283E-02
20.520	-2.1516772E-02
20.525	-2.8672796E-02
20.530	-3.5132673E-02
20.535	-4.0848285E-02
20.540	-4.5862127E-02
20.545	-5.0252563E-02
20.550	-5.4002910E-02
20.555	-5.7017234E-02
20.560	-5.9193931E-02
20.565	-6.0474921E-02
20.570	-6.0900041E-02
20.575	-6.0641493E-02
20.580	-6.0021518E-02
20.585	-5.9440993E-02
20.590	-5.9198323E-02
20.595	-5.9452355E-02
20.600	-6.0228705E-02
20.605	-6.1395142E-02
20.610	-6.2645000E-02
20.615	-6.3494558E-02
20.620	-6.3324505E-02
20.625	-6.1471543E-02
20.630	-5.7319911E-02
20.635	-5.0409085E-02
20.640	-4.0569360E-02
20.645	-2.8043922E-02
20.650	-1.3567840E-02
20.655	1.7797229E-03
20.660	1.7036101E-02
20.665	3.1379001E-02
20.670	4.4037605E-02
20.675	5.4307835E-02
20.680	6.1559907E-02
20.685	6.5218959E-02
20.690	6.4928516E-02
20.695	6.0726679E-02
20.700	5.3156028E-02
20.705	4.3197579E-02
20.710	3.1801148E-02
20.715	1.9534389E-02
20.720	6.7937668E-03
20.725	-6.0397895E-03
20.730	-1.8559063E-02
20.735	-3.0314605E-02
20.740	-4.0886765E-02
20.745	-4.9992348E-02
20.750	-5.7508731E-02
20.755	-6.3491159E-02
20.760	-6.8157260E-02
20.765	-7.1723720E-02
20.770	-7.4304937E-02
20.775	-7.6027114E-02
20.780	-7.7123323E-02
20.785	-7.7971559E-02
20.790	-7.9103703E-02
20.795	-8.1102087E-02
20.800	-8.4375970E-02
20.805	-8.9135279E-02
20.810	-9.5361706E-02
20.815	-1.0275395E-01
20.820	-1.1071005E-01
20.825	-1.1844292E-01
20.830	-1.2526522E-01
20.835	-1.3058839E-01
20.840	-1.3394216E-01
20.845	-1.3506208E-01
20.850	-1.3397771E-01
20.855	-1.3110020E-01
20.860	-1.2725490E-01
20.865	-1.2364212E-01
20.870	-1.2150014E-01
20.875	-1.2144078E-01
20.880	-1.2345123E-01
20.885	-1.2695056E-01
20.890	-1.3083937E-01
20.895	-1.3384856E-01
20.900	-1.3500871E-01
20.905	-1.3365826E-01
20.910	-1.2945648E-01
20.915	-1.2245709E-01
20.920	-1.1299627E-01
20.925	-1.0134766E-01
20.930	-8.7757731E-02
20.935	-7.2595092E-02
20.940	-5.6366054E-02
20.945	-3.9567615E-02
20.950	-2.2455588E-02
20.955	-5.1547863E-03
20.960	1.2250898E-02
20.965	2.9666249E-02
20.970	4.6957868E-02
20.975	6.3937755E-02
20.980	8.0391623E-02
20.985	9.6081062E-02
20.990	1.1075980E-01
20.995	1.2419604E-01
21.000	1.3620227E-01
21.005	1.4658614E-01
21.010	1.5500191E-01
21.015	1.6102859E-01
21.020	1.6433499E-01
21.025	1.6481839E-01
21.030	1.6271541E-01
21.035	1.5865436E-01
21.040	1.5342897E-01
21.045	1.4743562E-01
21.050	1.4081832E-01
21.055	1.3362230E-01
21.060	1.2583483E-01
21.065	1.1743252E-01
21.070	1.0840609E-01
21.075	9.8735011E-02
21.080	8.8285713E-02
21.085	7.6884291E-02
21.090	6.4387825E-02
21.095	5.0739413E-02
21.100	3.6008428E-02
21.105	2.0397165E-02
21.110	4.1254752E-03
21.115	-1.2723241E-02
21.120	-3.0116984E-02
21.125	-4.7982708E-02
21.130	-6.6160362E-02
21.135	-8.4347071E-02
21.140	-1.0206037E-01
21.145	-1.1860876E-01
21.150	-1.3312568E-01
21.155	-1.4464695E-01
21.160	-1.5223844E-01
21.165	-1.5514509E-01
21.170	-1.5297192E-01
21.175	-1.4588140E-01
21.180	-1.3472243E-01
21.185	-1.2075000E-01
21.190	-1.0478271E-01
21.195	-8.7246005E-02
21.200	-6.8471258E-02
21.205	-4.8841354E-02
21.210	-2.8870302E-02
21.215	-9.2384121E-03
21.220	9.3286969E-03
21.225	2.6355020E-02
21.230	4.1604019E-02
21.235	5.5057938E-02
21.240	6.6915103E-02
21.245	7.7425014E-02
21.250	8.6676316E-02
21.255	9.4707947E-02
21.260	1.0160923E-01
21.265	1.0754544E-01
21.270	1.1266796E-01
21.275	1.1686611E-01
21.280	1.1987695E-01
21.285	1.2140457E-01
21.290	1.2120680E-01
21.295	1.1917360E-01
21.300	1.1538652E-01
21.305	1.1003314E-01
21.310	1.0314507E-01
21.315	9.4742265E-02
21.320	8.4980797E-02
21.325	7.4232370E-02
21.330	6.3131538E-02
21.335	5.2569280E-02
21.340	4.3515025E-02
21.345	3.6645028E-02
21.350	3.2305010E-02
21.355	3.0487335E-02
21.360	3.0782170E-02
21.365	3.2550356E-02
21.370	3.5351608E-02
21.375	3.8824762E-02
21.380	4.2577383E-02
21.385	4.6188382E-02
21.390	4.9294059E-02
21.395	5.1802963E-02
21.400	5.3914332E-02
21.405	5.6068320E-02
21.410	5.8888143E-02
21.415	6.3042403E-02
21.420	6.8949167E-02
21.425	7.6547592E-02
21.430	8.5369867E-02
21.435	9.4818700E-02
21.440	1.0451457E-01
21.445	1.1421241E-01
21.450	1.2373103E-01
21.455	1.3294924E-01
21.460	1.4179210E-01
21.465	1.5019425E-01
21.470	1.5802006E-01
21.475	1.6506978E-01
21.480	1.7112100E-01
21.485	1.7597325E-01
21.490	1.7950230E-01
21.495	1.8171849E-01
21.500	1.8281017E-01
21.505	1.8312387E-01
21.510	1.8299900E-01
21.515	1.8264219E-01
21.520	1.8219188E-01
21.525	1.8176299E-01
21.530	1.8144797E-01
21.535	1.8131719E-01
21.540	1.8140347E-01
21.545	1.8168540E-01
21.550	1.8204705E-01
21.555	1.8222997E-01
21.560	1.8183524E-01
21.565	1.8035621E-01
21.570	1.7721788E-01
21.575	1.7185620E-01
21.580	1.6380585E-01
21.585	1.5279483E-01
21.590	1.3875196E-01
21.595	1.2179479E-01
21.600	1.0238860E-01
21.605	8.1465542E-02
21.610	6.0321855E-02
21.615	4.0223048E-02
21.620	2.2034541E-02
21.625	6.2636905E-03
21.630	-6.9673474E-03
21.635	-1.7971181E-02
21.640	-2.7508148E-02
21.645	-3.6540819E-02
21.650	-4.5712361E-02
21.655	-5.5401105E-02
21.660	-6.5792622E-02
21.665	-7.6848487E-02
21.670	-8.8308290E-02
21.675	-9.9689418E-02
21.680	-1.1033904E-01
21.685	-1.1951366E-01
21.690	-1.2649885E-01
21.695	-1.3072213E-01
21.700	-1.3190100E-01
21.705	-1.3018766E-01
21.710	-1.2628301E-01
21.715	-1.2146837E-01
21.720	-1.1735641E-01
21.725	-1.1529186E-01
21.730	-1.1634585E-01
21.735	-1.2126648E-01
21.740	-1.3032370E-01
21.745	-1.4317737E-01
21.750	-1.5890870E-01
21.755	-1.7634147E-01
21.760	-1.9414565E-01
21.765	-2.1074683E-01
21.770	-2.2445506E-01
21.775	-2.3386917E-01
21.780	-2.3826601E-01
21.785	-2.3768688E-01
21.790	-2.3298356E-01
21.795	-2.2563894E-01
21.800	-2.1702120E-01
21.805	-2.0780208E-01
21.810	-1.9818576E-01
21.815	-1.8808219E-01
21.820	-1.7718323E-01
21.825	-1.6506912E-01
21.830	-1.5131343E-01
21.835	-1.3559777E-01
21.840	-1.1785295E-01
21.845	-9.8404478E-02
21.850	-7.8051820E-02
21.855	-5.8071844E-02
21.860	-3.9964985E-02
21.865	-2.4885750E-02
21.870	-1.3480642E-02
21.875	-5.8778532E-03
21.880	-1.7733085E-03
21.885	-8.2962052E-04
21.890	-2.7465687E-03
21.895	-7.0554385E-03
21.900	-1.3059176E-02
21.905	-2.0066574E-02
21.910	-2.7731804E-02
21.915	-3.5898325E-02
21.920	-4.4454145E-02
21.925	-5.3270459E-02
21.930	-6.2154751E-02
21.935	-7.0852554E-02
21.940	-7.9056726E-02
21.945	-8.6406044E-02
21.950	-9.2510472E-02
21.955	-9.6998031E-02
21.960	-9.9560029E-02
21.965	-1.0004245E-01
21.970	-9.8556444E-02
21.975	-9.5560633E-02
21.980	-9.1804252E-02
21.985	-8.8102549E-02
21.990	-8.5363627E-02
21.995	-8.4561761E-02
22.000	-8.6521887E-02
22.005	-9.1553848E-02
22.010	-9.9296818E-02
22.015	-1.0869483E-01
22.020	-1.1808307E-01
22.025	-1.2567498E-01
22.030	-1.3023520E-01
22.035	-1.3107935E-01
22.040	-1.2807532E-01
22.045	-1.2170777E-01
22.050	-1.1281828E-01
22.055	-1.0192975E-01
22.060	-8.9265242E-02
22.065	-7.4993522E-02
22.070	-5.9353458E-02
22.075	-4.2757312E-02
22.080	-2.5843318E-02
22.085	-9.3942205E-03
22.090	5.9627588E-03
22.095	1.9753472E-02
22.100	3.1549193E-02
22.105	4.0820659E-02
22.110	4.6888059E-02
22.115	4.9102463E-02
22.120	4.7034410E-02
22.125	4.0635639E-02
22.130	3.0224189E-02
22.135	1.6221296E-02
22.140	-6.4027720E-04
22.145	-1.9317137E-02
22.150	-3.8904111E-02
22.155	-5.8753467E-02
22.160	-7.8296829E-02
22.165	-9.6953369E-02
22.170	-1.1412120E-01
22.175	-1.2918211E-01
22.180	-1.4153242E-01
22.185	-1.5069325E-01
22.190	-1.5645294E-01
22.195	-1.5899384E-01
22.200	-1.5897528E-01
22.205	-1.5738419E-01
22.210	-1.5499444E-01
22.215	-1.5218935E-01
22.220	-1.4913861E-01
22.225	-1.4589732E-01
22.230	-1.4245144E-01
22.235	-1.3876033E-01
22.240	-1.3478753E-01
22.245	-1.3052838E-01
22.250	-1.2598918E-01
22.255	-1.2112979E-01
22.260	-1.1588798E-01
22.265	-1.1020669E-01
22.270	-1.0404217E-01
22.275	-9.7375196E-02
22.280	-9.0200930E-02
22.285	-8.2490472E-02
22.290	-7.4162593E-02
22.295	-6.5136408E-02
22.300	-5.5376147E-02
22.305	-4.4936611E-02
22.310	-3.3992311E-02
22.315	-2.2855906E-02
22.320	-1.1924634E-02
22.325	-1.5381196E-03
22.330	8.1056136E-03
22.335	1.6939379E-02
22.340	2.5039703E-02
22.345	3.2614919E-02
22.350	3.9918500E-02
22.355	4.7116542E-02
22.360	5.4326751E-02
22.365	6.1641506E-02
22.370	6.9137241E-02
22.375	7.6870843E-02
22.380	8.4881539E-02
22.385	9.3186479E-02
22.390	1.0178706E-01
22.395	1.1068410E-01
22.400	1.1990355E-01
22.405	1.2946847E-01
22.410	1.3938437E-01
22.415	1.4961479E-01
22.420	1.6007197E-01
22.425	1.7062323E-01
22.430	1.8115003E-01
22.435	1.9158743E-01
22.440	2.0190348E-01
22.445	2.1207708E-01
22.450	2.2209290E-01
22.455	2.3192505E-01
22.460	2.4152216E-01
22.465	2.5077231E-01
22.470	2.5942305E-01
22.475	2.6699082E-01
22.480	2.7283064E-01
22.485	2.7623441E-01
22.490	2.7654951E-01
22.495	2.7332332E-01
22.500	2.6645923E-01
22.505	2.5633816E-01
22.510	2.4381479E-01
22.515	2.2984350E-01
22.520	2.1493801E-01
22.525	1.9936849E-01
22.530	1.8332337E-01
22.535	1.6696192E-01
22.540	1.5042897E-01
22.545	1.3382040E-01
22.550	1.1723228E-01
22.555	1.0080967E-01
22.560	8.4759046E-02
22.565	6.9358688E-02
22.570	5.4933614E-02
22.575	4.1815935E-02
22.580	3.0274836E-02
22.585	2.0449125E-02
22.590	1.2280774E-02
22.595	5.5294335E-03
22.600	-6.2220258E-05
22.605	-4.6395651E-03
22.610	-8.3484533E-03
22.615	-1.1402087E-02
22.620	-1.4098588E-02
22.625	-1.6759532E-02
22.630	-1.9559569E-02
22.635	-2.2452583E-02
22.640	-2.5209460E-02
22.645	-2.7440564E-02
22.650	-2.8634283E-02
22.655	-2.8211470E-02
22.660	-2.5619728E-02
22.665	-2.0453091E-02
22.670	-1.2577629E-02
22.675	-2.2370894E-03
22.680	9.8818013E-03
22.685	2.2808871E-02
22.690	3.5753238E-02
22.695	4.8128402E-02
22.700	5.9454695E-02
22.705	6.9359887E-02
22.710	7.7595625E-02
22.715	8.4056438E-02
22.720	8.8708525E-02
22.725	9.1378484E-02
22.730	9.1726504E-02
22.735	8.9430426E-02
22.740	8.4347153E-02
22.745	7.6667778E-02
22.750	6.7030592E-02
22.755	5.6571467E-02
22.760	4.6712694E-02
22.765	3.8568447E-02
22.770	3.2653563E-02
22.775	2.8947698E-02
22.780	2.6911531E-02
22.785	2.5670367E-02
22.790	2.4471066E-02
22.795	2.2729694E-02
22.800	1.9958482E-02
22.805	1.5790298E-02
22.810	1.0007479E-02
22.815	2.5848507E-03
22.820	-6.3020843E-03
22.825	-1.6396997E-02
22.830	-2.7659055E-02
22.835	-4.0152680E-02
22.840	-5.3927772E-02
22.845	-6.8937838E-02
22.850	-8.4969385E-02
22.855	-1.0158198E-01
22.860	-1.1810023E-01
22.865	-1.3374405E-01
22.870	-1.4796697E-01
22.875	-1.6052557E-01
22.880	-1.7148511E-01
22.885	-1.8122852E-01
22.890	-1.9042465E-01
22.895	-1.9976323E-01
22.900	-2.0961016E-01
22.905	-2.2005059E-01
22.910	-2.3094019E-01
22.915	-2.4190712E-01
22.920	-2.5243343E-01
22.925	-2.6202076E-01
22.930	-2.7030576E-01
22.935	-2.7708750E-01
22.940	-2.8237750E-01
22.945	-2.8642370E-01
22.950	-2.8964988E-01
22.955	-2.9239808E-01
22.960	-2.9473225E-01
22.965	-2.9651151E-01
22.970	-2.9746091E-01
22.975	-2.9721789E-01
22.980	-2.9540760E-01
22.985	-2.9173685E-01
22.990	-2.8608963E-01
22.995	-2.7860569E-01
23.000	-2.6969518E-01
23.005	-2.5985662E-01
23.010	-2.4940264E-01
23.015	-2.3856846E-01
23.020	-2.2760021E-01
23.025	-2.1677359E-01
23.030	-2.0639736E-01
23.035	-1.9679016E-01
23.040	-1.8821650E-01
23.045	-1.8082492E-01
23.050	-1.7460128E-01
23.055	-1.6933337E-01
23.060	-1.6458818E-01
23.065	-1.5976566E-01
23.070	-1.5428798E-01
23.075	-1.4777330E-01
23.080	-1.4002581E-01
23.085	-1.3105431E-01
23.090	-1.2109112E-01
23.095	-1.1059199E-01
23.100	-1.0010829E-01
23.105	-9.0005862E-02
23.110	-8.0411704E-02
23.115	-7.1247445E-02
23.120	-6.2228419E-02
23.125	-5.2900995E-02
23.130	-4.2722707E-02
23.135	-3.1204802E-02
23.140	-1.7976239E-02
23.145	-2.8747999E-03
23.150	1.3968863E-02
23.155	3.2063637E-02
23.160	5.0634408E-02
23.165	6.8853505E-02
23.170	8.5821085E-02
23.175	1.0056879E-01
23.180	1.1218644E-01
23.185	1.1999386E-01
23.190	1.2370303E-01
23.195	1.2355911E-01
23.200	1.2043629E-01
23.205	1.1569890E-01
23.210	1.1060775E-01
23.215	1.0583276E-01
23.220	1.0162089E-01
23.225	9.7905723E-02
23.230	9.4351307E-02
23.235	9.0432615E-02
23.240	8.5646952E-02
23.245	7.9877918E-02
23.250	7.3401317E-02
23.255	6.6837428E-02
23.260	6.0976196E-02
23.265	5.6393385E-02
23.270	5.3430955E-02
23.275	5.2180678E-02
23.280	5.2462017E-02
23.285	5.3937723E-02
23.290	5.6195311E-02
23.295	5.8667320E-02
23.300	6.0604261E-02
23.305	6.1143433E-02
23.310	5.9505047E-02
23.315	5.5257604E-02
23.320	4.8390250E-02
23.325	3.9370880E-02
23.330	2.9164153E-02
23.335	1.9045002E-02
23.340	1.0008292E-02
23.345	2.2952036E-03
23.350	-4.4792543E-03
23.355	-1.1137423E-02
23.360	-1.8545229E-02
23.365	-2.7086026E-02
23.370	-3.6692613E-02
23.375	-4.6896983E-02
23.380	-5.6961743E-02
23.385	-6.6230261E-02
23.390	-7.4196106E-02
23.395	-8.0503483E-02
23.400	-8.5003128E-02
23.405	-8.7797385E-02
23.410	-8.9182240E-02
23.415	-8.9398325E-02
23.420	-8.8561896E-02
23.425	-8.6763588E-02
23.430	-8.4117931E-02
23.435	-8.0712377E-02
23.440	-7.6464294E-02
23.445	-7.1209047E-02
23.450	-6.4797887E-02
23.455	-5.7173174E-02
23.460	-4.8435651E-02
23.465	-3.8887913E-02
23.470	-2.8981900E-02
23.475	-1.9115936E-02
23.480	-9.5551930E-03
23.485	-4.8258423E-04
23.490	7.9859043E-03
23.495	1.5775446E-02
23.500	2.2775604E-02
23.505	2.8793802E-02
23.510	3.3627329E-02
23.515	3.7134513E-02
23.520	3.9303944E-02
23.525	4.0313045E-02
23.530	4.0569771E-02
23.535	4.0661123E-02
23.540	4.1138080E-02
23.545	4.2330928E-02
23.550	4.4389254E-02
23.555	4.7304016E-02
23.560	5.0939440E-02
23.565	5.5156350E-02
23.570	5.9902950E-02
23.575	6.5157229E-02
23.580	7.0880452E-02
23.585	7.6990921E-02
23.590	8.3346031E-02
23.595	8.9761944E-02
23.600	9.6085824E-02
23.605	1.0217391E-01
23.610	1.0788295E-01
23.615	1.1308215E-01
23.620	1.1767553E-01
23.625	1.2163043E-01
23.630	1.2500800E-01
23.635	1.2798444E-01
23.640	1.3083395E-01
23.645	1.3384774E-01
23.650	1.3729502E-01
23.655	1.4142421E-01
23.660	1.4643902E-01
23.665	1.5245510E-01
23.670	1.5945425E-01
23.675	1.6724574E-01
23.680	1.7547958E-01
23.685	1.8375407E-01
23.690	1.9164596E-01
23.695	1.9868255E-01
23.700	2.0434577E-01
23.705	2.0811390E-01
23.710	2.0951328E-01
23.715	2.0816274E-01
23.720	2.0371985E-01
23.725	1.9580685E-01
23.730	1.8422047E-01
23.735	1.6913181E-01
23.740	1.5119668E-01
23.745	1.3140052E-01
23.750	1.1055003E-01
23.755	8.9448324E-02
23.760	6.9019740E-02
23.765	5.0272751E-02
23.770	3.4072062E-02
23.775	2.0719364E-02
23.780	9.9277360E-03
23.785	8.6086431E-04
23.790	-7.6305546E-03
23.795	-1.6393467E-02
23.800	-2.5911379E-02
23.805	-3.6387104E-02
23.810	-4.7756598E-02
23.815	-5.9691864E-02
23.820	-7.1703335E-02
23.825	-8.3350547E-02
23.830	-9.4247862E-02
23.835	-1.0406721E-01
23.840	-1.1258035E-01
23.845	-1.1967630E-01
23.850	-1.2531768E-01
23.855	-1.2937471E-01
23.860	-1.3172645E-01
23.865	-1.3236576E-01
23.870	-1.3146825E-01
23.875	-1.2943235E-01
23.880	-1.2679063E-01
23.885	-1.2393316E-01
23.890	-1.2111632E-01
23.895	-1.1854505E-01
23.900	-1.1640127E-01
23.905	-1.1485115E-01
23.910	-1.1404353E-01
23.915	-1.1410010E-01
23.920	-1.1511600E-01
23.925	-1.1720740E-01
23.930	-1.2057767E-01
23.935	-1.2541793E-01
23.940	-1.3180453E-01
23.945	-1.3961540E-01
23.950	-1.4847122E-01
23.955	-1.5775545E-01
23.960	-1.6680298E-01
23.965	-1.7506367E-01
23.970	-1.8208301E-01
23.975	-1.8751751E-01
23.980	-1.9119860E-01
23.985	-2.1712120E-01
23.990	-2.1778021E-01
23.995	-2.1762792E-01
24.000	-2.1717284E-01
24.005	-2.1678286E-01
24.010	-2.1674707E-01
24.015	-2.1728457E-01
24.020	-2.1852600E-01
24.025	-2.2048424E-01
24.030	-2.2302530E-01
24.035	-2.2584731E-01
24.040	-2.2849723E-01
24.045	-2.3044463E-01
24.050	-2.3110192E-01
24.055	-2.2984063E-01
24.060	-2.2601290E-01
24.065	-2.1899684E-01
24.070	-2.0834648E-01
24.075	-1.9395534E-01
24.080	-1.7617415E-01
24.085	-1.5578030E-01
24.090	-1.3358855E-01
24.095	-1.1017344E-01
24.100	-8.6074198E-02
24.105	-6.1935668E-02
24.110	-3.8505173E-02
24.115	-1.6528635E-02
24.120	3.3722384E-03
24.125	2.0723453E-02
24.130	3.5258113E-02
24.135	4.6973902E-02
24.140	5.6045135E-02
24.145	6.2528640E-02
24.150	6.6561048E-02
24.155	6.8532496E-02
24.160	6.9147076E-02
24.165	6.9255029E-02
24.170	6.9411716E-02
24.175	6.9968466E-02
24.180	7.1153441E-02
24.185	7.3050999E-02
24.190	7.5580132E-02
24.195	7.8461833E-02
24.200	8.1202758E-02
24.205	8.3096531E-02
24.210	8.3261058E-02
24.215	8.0717147E-02
24.220	7.4516672E-02
24.225	6.3915474E-02
24.230	4.8574941E-02
24.235	2.8757063E-02
24.240	5.4504505E-03
24.245	-1.9786804E-02
24.250	-4.5480184E-02
24.255	-7.0471210E-02
24.260	-9.3769386E-02
24.265	-1.1452997E-01
24.270	-1.3214212E-01
24.275	-1.4633089E-01
24.280	-1.5726819E-01
24.285	-1.6563569E-01
24.290	-1.7262819E-01
24.295	-1.7960779E-01
24.300	-1.8737252E-01
24.305	-1.9623180E-01
24.310	-2.0610393E-01
24.315	-2.1650028E-01
24.320	-2.2659548E-01
24.325	-2.3540262E-01
24.330	-2.4196664E-01
24.335	-2.4543740E-01
24.340	-2.4518889E-01
24.345	-2.4094500E-01
24.350	-2.3287174E-01
24.355	-2.2139325E-01
24.360	-2.0667067E-01
24.365	-1.8886419E-01
24.370	-1.6838914E-01
24.375	-1.4601563E-01
24.380	-1.2282473E-01
24.385	-9.9849019E-02
24.390	-7.7779750E-02
24.395	-5.7077643E-02
24.400	-3.8021919E-02
24.405	-2.0696442E-02
24.410	-4.9690657E-03
24.415	9.4534307E-03
24.420	2.2828821E-02
24.425	3.5238425E-02
24.430	4.6696439E-02
24.435	5.7236924E-02
24.440	6.6967663E-02
24.445	7.6099895E-02
24.450	8.4910273E-02
24.455	9.3587207E-02
24.460	1.0223064E-01
24.465	1.1088410E-01
24.470	1.1953895E-01
24.475	1.2812220E-01
24.480	1.3648494E-01
24.485	1.4436518E-01
24.490	1.5134069E-01
24.495	1.5686196E-01
24.500	1.6034339E-01
24.505	1.6127021E-01
24.510	1.5933086E-01
24.515	1.5455734E-01
24.520	1.4744950E-01
24.525	1.3903873E-01
24.530	1.3078469E-01
24.535	1.2414662E-01
24.540	1.2019714E-01
24.545	1.1960463E-01
24.550	1.2255733E-01
24.555	1.2864091E-01
24.560	1.3678477E-01
24.565	1.4541762E-01
24.570	1.5305033E-01
24.575	1.5875739E-01
24.580	1.6208702E-01
24.585	1.6300276E-01
24.590	1.6180074E-01
24.595	1.5878621E-01
24.600	1.5404439E-01
24.605	1.4758537E-01
24.610	1.3946515E-01
24.615	1.2985688E-01
24.620	1.1910086E-01
24.625	1.0764429E-01
24.630	9.5791989E-02
24.635	8.3649964E-02
24.640	7.1247395E-02
24.645	5.8621106E-02
24.650	4.5856881E-02
24.655	3.3128418E-02
24.660	2.0710497E-02
24.665	8.9709975E-03
24.670	-1.6786420E-03
24.675	-1.0838113E-02
24.680	-1.8192464E-02
24.685	-2.3591813E-02
24.690	-2.7147420E-02
24.695	-2.9288090E-02
24.700	-3.0773607E-02
24.705	-3.2490850E-02
24.710	-3.5012504E-02
24.715	-3.8634373E-02
24.720	-4.3420315E-02
24.725	-4.9175360E-02
24.730	-5.5497564E-02
24.735	-6.1937376E-02
24.740	-6.8138541E-02
24.745	-7.3801035E-02
24.750	-7.8675940E-02
24.755	-8.2584394E-02
24.760	-8.5444988E-02
24.765	-8.7291570E-02
24.770	-8.8282921E-02
24.775	-8.8642846E-02
24.780	-8.8500896E-02
24.785	-8.7844428E-02
24.790	-8.6585842E-02
24.795	-8.4613155E-02
24.800	-8.1836665E-02
24.805	-7.8236256E-02
24.810	-7.3901106E-02
24.815	-6.9049025E-02
24.820	-6.3953929E-02
24.825	-5.8765297E-02
24.830	-5.3553842E-02
24.835	-4.8356869E-02
24.840	-4.3185116E-02
24.845	-3.8033364E-02
24.850	-3.2885617E-02
24.855	-2.7724776E-02
24.860	-2.2539527E-02
24.865	-1.7333268E-02
24.870	-1.2128972E-02
24.875	-6.9725788E-03
24.880	-1.9292253E-03
24.885	2.9176764E-03
24.890	7.4746551E-03
24.895	1.1649084E-02
24.900	1.5366303E-02
24.905	1.8587897E-02
24.910	2.1330045E-02
24.915	2.3674175E-02
24.920	2.5750693E-02
24.925	2.7676083E-02
24.930	2.9532493E-02
24.935	3.1384863E-02
24.940	3.3286690E-02
24.945	3.5276716E-02
24.950	3.7373702E-02
24.955	3.9568551E-02
24.960	4.1816780E-02
24.965	4.4029641E-02
24.970	4.6068304E-02
24.975	4.7748626E-02
24.980	4.8856879E-02
24.985	4.9175639E-02
24.990	4.8519458E-02
24.995	4.6778456E-02
25.000	4.3963732E-02
25.005	4.0240896E-02
25.010	3.5924457E-02
25.015	3.1364231E-02
25.020	2.6784671E-02
25.025	2.2334959E-02
25.030	1.8125307E-02
25.035	1.4228650E-02
25.040	1.0679357E-02
25.045	7.4712873E-03
25.050	4.5622265E-03
25.055	1.8970653E-03
25.060	-5.9961848E-04
25.065	-3.0357149E-03
25.070	-5.5561914E-03
25.075	-8.3373371E-03
25.080	-1.1573396E-02
25.085	-1.5450521E-02
25.090	-2.0119266E-02
25.095	-2.5662970E-02
25.100	-3.2041084E-02
25.105	-3.9033139E-02
25.110	-4.6202035E-02
25.115	-5.2888236E-02
25.120	-5.8270327E-02
25.125	-6.1559842E-02
25.130	-6.2262581E-02
25.135	-6.0206940E-02
25.140	-5.5554032E-02
25.145	-4.8648921E-02
25.150	-3.9604354E-02
25.155	-2.8376605E-02
25.160	-1.4982677E-02
25.165	3.5952092E-04
25.170	1.7143585E-02
25.175	3.4577606E-02
25.180	5.1840252E-02
25.185	6.8437810E-02
25.190	8.4080576E-02
25.195	9.8574506E-02
25.200	1.1175148E-01
25.205	1.2334253E-01
25.210	1.3303964E-01
25.215	1.4056841E-01
25.220	1.4575053E-01
25.225	1.4855382E-01
25.230	1.4903714E-01
25.235	1.4710460E-01
25.240	1.4250456E-01
25.245	1.3504401E-01
25.250	1.2474956E-01
25.255	1.1190024E-01
25.260	9.6922418E-02
25.265	8.0540650E-02
25.270	6.3853743E-02
25.275	4.8184205E-02
25.280	3.4592754E-02
25.285	2.3482078E-02
25.290	1.4677456E-02
25.295	7.5180225E-03
25.300	1.1375733E-03
25.305	-4.9515703E-03
25.310	-1.0960384E-02
25.315	-1.6926687E-02
25.320	-2.2729210E-02
25.325	-2.8124010E-02
25.330	-3.2816268E-02
25.335	-3.6584102E-02
25.340	-3.9357678E-02
25.345	-4.1239678E-02
25.350	-4.2510119E-02
25.355	-4.3534039E-02
25.360	-4.4542468E-02
25.365	-4.5611650E-02
25.370	-4.6705240E-02
25.375	-4.7685073E-02
25.380	-4.8337419E-02
25.385	-4.8435725E-02
25.390	-4.7826169E-02
25.395	-4.6448096E-02
25.400	-4.4355650E-02
25.405	-4.1734566E-02
25.410	-3.8874728E-02
25.415	-3.6056161E-02
25.420	-3.3458491E-02
25.425	-3.1187307E-02
25.430	-2.9286071E-02
25.435	-2.7732469E-02
25.440	-2.6441249E-02
25.445	-2.5294614E-02
25.450	-2.4211410E-02
25.455	-2.3150479E-02
25.460	-2.2095286E-02
25.465	-2.1047631E-02
25.470	-2.0020894E-02
25.475	-1.9032318E-02
25.480	-1.8092804E-02
25.485	-1.7195325E-02
25.490	-1.6299364E-02
25.495	-1.5322421E-02
25.500	-1.4144498E-02
25.505	-1.2620411E-02
25.510	-1.0597414E-02
25.515	-7.9427323E-03
25.520	-4.5740201E-03
25.525	-4.9486435E-04
25.530	4.1825951E-03
25.535	9.2282153E-03
25.540	1.4367275E-02
25.545	1.9440418E-02
25.550	2.4362120E-02
25.555	2.9077752E-02
25.560	3.3556567E-02
25.565	3.7780612E-02
25.570	4.1741495E-02
25.575	4.5432861E-02
25.580	4.8847208E-02
25.585	5.1966858E-02
25.590	5.4749063E-02
25.595	5.7119177E-02
25.600	5.8992097E-02
25.605	6.0294220E-02
25.610	6.0987830E-02
25.615	6.1092950E-02
25.620	6.0702189E-02
25.625	5.9975190E-02
25.630	5.9078745E-02
25.635	5.8106851E-02
25.640	5.7108513E-02
25.645	5.6109870E-02
25.650	5.5118626E-02
25.655	5.4129154E-02
25.660	5.3125635E-02
25.665	5.2086493E-02
25.670	5.0988027E-02
25.675	4.9808560E-02
25.680	4.8531108E-02
25.685	4.7144431E-02
25.690	4.5641509E-02
25.695	4.4025963E-02
25.700	4.2315395E-02
25.705	4.0542423E-02
25.710	3.8743557E-02
25.715	3.6935151E-02
25.720	3.5115005E-02
25.725	3.3273382E-02
25.730	3.1398196E-02
25.735	2.9481673E-02
25.740	2.7525094E-02
25.745	2.5543417E-02
25.750	2.3565262E-02
25.755	2.1623173E-02
25.760	1.9729531E-02
25.765	1.7885125E-02
25.770	1.6083361E-02
25.775	1.4314346E-02
25.780	1.2567022E-02
25.785	1.0832867E-02
25.790	9.1077096E-03
25.795	7.3942755E-03
25.800	5.6970356E-03
25.805	4.0117304E-03
25.810	2.3321730E-03
25.815	6.5945442E-04
25.820	-9.9418161E-04
25.825	-2.6014011E-03
25.830	-4.1223907E-03
25.835	-5.5135752E-03
25.840	-6.7367832E-03
25.845	-7.7577350E-03
25.850	-8.5503360E-03
25.855	-9.1007640E-03
25.860	-9.4139737E-03
25.865	-9.5171563E-03
25.870	-9.4612630E-03
25.875	-9.3061113E-03
25.880	-9.0903045E-03
25.885	-8.8391539E-03
25.890	-8.5727246E-03
25.895	-8.3054003E-03
25.900	-8.0458386E-03
25.905	-7.7936888E-03
25.910	-7.5355581E-03
25.915	-7.2445564E-03
25.920	-6.8826962E-03
25.925	-6.4036431E-03
25.930	-5.7582375E-03
25.935	-4.9010003E-03
25.940	-3.7981772E-03
25.945	-2.4321103E-03
25.950	-8.0011469E-04
25.955	1.0699283E-03
25.960	3.1092219E-03
25.965	5.2071806E-03
25.970	7.2417970E-03
25.975	9.1417891E-03
25.980	1.0869319E-02
25.985	1.2404292E-02
25.990	1.3742457E-02
25.995	1.4892129E-02
26.000	1.5868958E-02
26.005	1.6685626E-02
26.010	1.7355755E-02
26.015	1.7896684E-02
26.020	1.8330293E-02
26.025	1.8680308E-02
26.030	1.8963617E-02
26.035	1.9184818E-02
26.040	1.9341628E-02
26.045	1.9428858E-02
26.050	1.9440968E-02
26.055	1.9374385E-02
26.060	1.9229356E-02
26.065	1.9010980E-02
26.070	1.8727104E-02
26.075	1.8381835E-02
26.080	1.7975229E-02
26.085	1.7508296E-02
26.090	1.6986340E-02
26.095	1.6421299E-02
26.100	1.5832555E-02
26.105	1.5245404E-02
26.110	1.4683350E-02
26.115	1.4159071E-02
26.120	1.3677213E-02
26.125	1.3236650E-02
26.130	1.2830438E-02
26.135	1.2446754E-02
26.140	1.2069967E-02
26.145	1.1684009E-02
26.150	1.1277444E-02
26.155	1.0844960E-02
26.160	1.0387477E-02
26.165	9.9126872E-03
26.170	9.4333820E-03
26.175	8.9625495E-03
26.180	8.5071599E-03
26.185	8.0715021E-03
26.190	7.6593732E-03
26.195	7.2747994E-03
26.200	6.9219603E-03
26.205	6.6030152E-03
26.210	6.3133238E-03
26.215	6.0445981E-03
26.220	5.7878130E-03
26.225	5.5353808E-03
26.230	5.2834510E-03
26.235	5.0343644E-03
26.240	4.7973316E-03
26.245	4.5882668E-03
26.250	4.4277188E-03
26.255	4.3347427E-03
26.260	4.3163549E-03
26.265	4.3700816E-03
26.270	4.4868263E-03
26.275	4.6547034E-03
26.280	4.8631615E-03
26.285	5.1007230E-03
26.290	5.3538128E-03
26.295	5.6090955E-03
26.300	5.8581460E-03
26.305	6.0964366E-03
26.310	6.3211462E-03
26.315	6.5303817E-03
26.320	6.7231243E-03
26.325	6.8998386E-03
26.330	7.0616970E-03
26.335	7.2100738E-03
26.340	7.3463122E-03
26.345	7.4716338E-03
26.350	7.5872061E-03
26.355	7.6942392E-03
26.360	7.7936158E-03
26.365	7.8855943E-03
26.370	7.9695977E-03
26.375	8.0441178E-03
26.380	8.1067786E-03
26.385	8.1546303E-03
26.390	8.1851163E-03
26.395	8.1976275E-03
26.400	8.1932097E-03
26.405	8.1738991E-03
26.410	8.1423253E-03
26.415	8.1012000E-03
26.420	8.0525921E-03
26.425	7.9978038E-03
26.430	7.9376356E-03
26.435	7.8725512E-03
26.440	7.8027822E-03
26.445	7.7284846E-03
26.450	7.6498817E-03
26.455	7.5673265E-03
26.460	7.4813215E-03
26.465	7.3925219E-03
26.470	7.3017108E-03
26.475	7.2097339E-03
26.480	7.1173374E-03
26.485	7.0249624E-03
26.490	6.9328098E-03
26.495	6.8409716E-03
26.500	6.7494676E-03
26.505	6.6582870E-03
26.510	6.5673988E-03
26.515	6.4767699E-03
26.520	6.3863661E-03
26.525	6.2961568E-03
26.530	6.2060961E-03
26.535	6.1161388E-03
26.540	6.0262398E-03
26.545	5.9363622E-03
26.550	5.8464706E-03
26.555	5.7565331E-03
26.560	5.6665241E-03
26.565	5.5764232E-03
26.570	5.4862155E-03
26.575	5.3958945E-03
26.580	5.3054562E-03
26.585	5.2149045E-03
26.590	5.1242420E-03
26.595	5.0334769E-03
26.600	4.9426206E-03
26.605	4.8516864E-03
26.610	4.7606914E-03
26.615	4.6696537E-03
26.620	4.5785947E-03
26.625	4.4875373E-03
26.630	4.3965086E-03
26.635	4.3055358E-03
26.640	4.2146492E-03
26.645	4.1238808E-03
